# multipoles
# s[mm] polynom_b[n=0][T/m^n] polynom_b[n=2][T/m^n] polynom_b[n=4][T/m^n] polynom_b[n=6][T/m^n] polynom_b[n=8][T/m^n] polynom_b[n=14][T/m^n] 
+0.0000000000000000e+00 -2.1019110204168943e-02 -2.3921074284493238e+03 -3.9939559777128778e+05 -3.5677914993305117e+08 +3.8110982307780195e+12 -3.4239272735177751e+23 
+1.0000000000000001e-01 -2.1019109226876612e-02 -2.3921076382151787e+03 -3.9938662397192308e+05 -3.5701093974172407e+08 +3.8129022680056733e+12 -3.4258116308517964e+23 
+2.0000000000000001e-01 -2.1019106564410854e-02 -2.3921082283158325e+03 -3.9936118497771310e+05 -3.5767558180321956e+08 +3.8180819884231519e+12 -3.4312095111866222e+23 
+3.0000000000000004e-01 -2.1019102620853200e-02 -2.3921091399653283e+03 -3.9932150397886575e+05 -3.5872699124684274e+08 +3.8262888357597178e+12 -3.4397381428565071e+23 
+4.0000000000000002e-01 -2.1019097800278625e-02 -2.3921103143811119e+03 -3.9926980396143673e+05 -3.6011908686135620e+08 +3.8371742743970420e+12 -3.4510147675874615e+23 
+5.0000000000000000e-01 -2.1019092506787733e-02 -2.3921116927715493e+03 -3.9920830838231475e+05 -3.6180577963977808e+08 +3.8503897268789780e+12 -3.4646566020472276e+23 
+6.0000000000000009e-01 -2.1019087144466025e-02 -2.3921132163505490e+03 -3.9913924041000596e+05 -3.6374098535772264e+08 +3.8655866414593003e+12 -3.4802808783847808e+23 
+7.0000000000000007e-01 -2.1019082117380503e-02 -2.3921148263368550e+03 -3.9906482299470314e+05 -3.6587862309048486e+08 +3.8824164829323281e+12 -3.4975048373882515e+23 
+8.0000000000000004e-01 -2.1019077829673553e-02 -2.3921164639267372e+03 -3.9898728016763006e+05 -3.6817259481693912e+08 +3.9005306272282339e+12 -3.5159456696142745e+23 
+9.0000000000000002e-01 -2.1019074685391777e-02 -2.3921180703462705e+03 -3.9890883449498418e+05 -3.7057682602594393e+08 +3.9195805738031567e+12 -3.5352206368970851e+23 
+1.0000000000000000e+00 -2.1019073088585576e-02 -2.3921195868191803e+03 -3.9883170869059942e+05 -3.7304523949932218e+08 +3.9392178066472637e+12 -3.5549469908976970e+23 
+1.1000000000000001e+00 -2.1019073318638386e-02 -2.3921209728726094e+03 -3.9875750940632849e+05 -3.7554024143088001e+08 +3.9591408130201294e+12 -3.5747830351862380e+23 
+1.2000000000000002e+00 -2.1019075155464882e-02 -2.3921222614931985e+03 -3.9868536708564457e+05 -3.7805836228502101e+08 +3.9792370901737290e+12 -3.5945518519380140e+23 
+1.3000000000000000e+00 -2.1019078254302277e-02 -2.3921235039732974e+03 -3.9861379601973930e+05 -3.8060461716923511e+08 +3.9994411443373701e+12 -3.6141175778120979e+23 
+1.4000000000000001e+00 -2.1019082270342590e-02 -2.3921247516191420e+03 -3.9854130982807011e+05 -3.8318403184381086e+08 +4.0196875372276743e+12 -3.6333443809922319e+23 
+1.5000000000000000e+00 -2.1019086858849963e-02 -2.3921260557142123e+03 -3.9846642324737913e+05 -3.8580161417991364e+08 +4.0399107367468428e+12 -3.6520963757056794e+23 
+1.6000000000000001e+00 -2.1019091674957475e-02 -2.3921274675836248e+03 -3.9838764896123920e+05 -3.8846240500659657e+08 +4.0600453839178540e+12 -3.6702377759967730e+23 
+1.7000000000000002e+00 -2.1019096373904440e-02 -2.3921290385188418e+03 -3.9830350130872260e+05 -3.9117141863920480e+08 +4.0800259807724194e+12 -3.6876327161272938e+23 
+1.8000000000000000e+00 -2.1019100610866658e-02 -2.3921308198309143e+03 -3.9821249367903435e+05 -3.9393368445509005e+08 +4.0997871077115762e+12 -3.7041453746970012e+23 
+1.9000000000000001e+00 -2.1019104041091804e-02 -2.3921328628090910e+03 -3.9811314051215188e+05 -3.9675421521209198e+08 +4.1192632587574688e+12 -3.7196398814529362e+23 
+2.0000000000000000e+00 -2.1019106319724999e-02 -2.3921352187745665e+03 -3.9800395468430774e+05 -3.9963804867877388e+08 +4.1383890590365518e+12 -3.7339804415280469e+23 
+2.1000000000000001e+00 -2.1019107240067652e-02 -2.3921379083122442e+03 -3.9788458982880681e+05 -4.0257596953000677e+08 +4.1570477183907397e+12 -3.7470328511043672e+23 
+2.2000000000000002e+00 -2.1019107147411644e-02 -2.3921408292609476e+03 -3.9775925281388900e+05 -4.0550190726374024e+08 +4.1749176117704238e+12 -3.7586697480677632e+23 
+2.3000000000000003e+00 -2.1019106525130924e-02 -2.3921438487484711e+03 -3.9763328998488619e+05 -4.0833555914121252e+08 +4.1916258094575527e+12 -3.7687654261267652e+23 
+2.4000000000000004e+00 -2.1019105856599267e-02 -2.3921468339008893e+03 -3.9751204780242452e+05 -4.1099662035545981e+08 +4.2067993702887280e+12 -3.7771941720393366e+23 
+2.5000000000000000e+00 -2.1019105625194431e-02 -2.3921496518445961e+03 -3.9740087267488230e+05 -4.1340478725637120e+08 +4.2200653602079297e+12 -3.7838302775447127e+23 
+2.6000000000000001e+00 -2.1019106314288025e-02 -2.3921521697065159e+03 -3.9730511102901748e+05 -4.1547975544115579e+08 +4.2310508395311226e+12 -3.7885480294548488e+23 
+2.7000000000000002e+00 -2.1019108407236649e-02 -2.3921542546190267e+03 -3.9723010899739811e+05 -4.1714122549875087e+08 +4.2393828958104009e+12 -3.7912217313521747e+23 
+2.8000000000000003e+00 -2.1019112387397454e-02 -2.3921557737136545e+03 -3.9718121276731847e+05 -4.1830889704656827e+08 +4.2446886112283281e+12 -3.7917256835186737e+23 
+2.9000000000000004e+00 -2.1019118738174705e-02 -2.3921565941090735e+03 -3.9716376911631710e+05 -4.1890246060519630e+08 +4.2465950214136504e+12 -3.7899341604654420e+23 
+3.0000000000000000e+00 -2.1019127942911556e-02 -2.3921565829404249e+03 -3.9718312408225297e+05 -4.1884161786584800e+08 +4.2447292181986621e+12 -3.7857214667504301e+23 
+3.1000000000000001e+00 -2.1019140307405679e-02 -2.3921556553814312e+03 -3.9724271929515479e+05 -4.1807353783556759e+08 +4.2388564116153721e+12 -3.7790301031890261e+23 
+3.2000000000000002e+00 -2.1019155427210730e-02 -2.3921539187719827e+03 -3.9733837840747909e+05 -4.1665526183325934e+08 +4.2292942912236318e+12 -3.7700753501815080e+23 
+3.3000000000000003e+00 -2.1019172720285712e-02 -2.3921515285045916e+03 -3.9746402000675933e+05 -4.1467130871395725e+08 +4.2164987173529873e+12 -3.7591407136737609e+23 
+3.4000000000000004e+00 -2.1019191604576569e-02 -2.3921486399754253e+03 -3.9761356252058566e+05 -4.1220619966497558e+08 +4.2009255616662168e+12 -3.7465097051760460e+23 
+3.5000000000000000e+00 -2.1019211498083942e-02 -2.3921454085641967e+03 -3.9778092515866191e+05 -4.0934444364408404e+08 +4.1830306328413477e+12 -3.7324658012133157e+23 
+3.6000000000000001e+00 -2.1019231818762633e-02 -2.3921419896630873e+03 -3.9796002657289139e+05 -4.0617055796092820e+08 +4.1632697811630537e+12 -3.7172924999448863e+23 
+3.7000000000000002e+00 -2.1019251984585877e-02 -2.3921385386610277e+03 -3.9814478551350150e+05 -4.0276905896113718e+08 +4.1420988540759561e+12 -3.7012733001175093e+23 
+3.8000000000000003e+00 -2.1019271413493509e-02 -2.3921352109568279e+03 -3.9832912024883524e+05 -3.9922447072569209e+08 +4.1199737397640620e+12 -3.6846917241780178e+23 
+3.9000000000000004e+00 -2.1019289523470767e-02 -2.3921321619330661e+03 -3.9850694990744739e+05 -3.9562130286715323e+08 +4.0973502478982573e+12 -3.6678312466855971e+23 
+4.0000000000000000e+00 -2.1019305732496128e-02 -2.3921295469770398e+03 -3.9867219331437169e+05 -3.9204407060500824e+08 +4.0746842203012969e+12 -3.6509753634453921e+23 
+4.1000000000000005e+00 -2.1019319623349041e-02 -2.3921274823321742e+03 -3.9881987214604876e+05 -3.8856993923053831e+08 +4.0524156499920229e+12 -3.6344193819502414e+23 
+4.2000000000000002e+00 -2.1019331438094018e-02 -2.3921259276486508e+03 -3.9894942016247829e+05 -3.8524666537164736e+08 +4.0309210945554053e+12 -3.6185058397027858e+23 
+4.2999999999999998e+00 -2.1019341583669953e-02 -2.3921248034124874e+03 -3.9906137490156252e+05 -3.8211464159301025e+08 +4.0105611911747778e+12 -3.6035890472200796e+23 
+4.4000000000000004e+00 -2.1019350466959828e-02 -2.3921240301255489e+03 -3.9915627316653420e+05 -3.7921427178627509e+08 +3.9916966348418521e+12 -3.5900233466532150e+23 
+4.5000000000000000e+00 -2.1019358494884063e-02 -2.3921235282793541e+03 -3.9923465223293169e+05 -3.7658595263528061e+08 +3.9746880840348242e+12 -3.5781630604493326e+23 
+4.6000000000000005e+00 -2.1019366074342682e-02 -2.3921232183711768e+03 -3.9929704910924367e+05 -3.7427008495652759e+08 +3.9598962184061187e+12 -3.5683625227491917e+23 
+4.7000000000000002e+00 -2.1019373612215602e-02 -2.3921230209046307e+03 -3.9934400049362873e+05 -3.7230707450798231e+08 +3.9476817433820044e+12 -3.5609760823292388e+23 
+4.8000000000000007e+00 -2.1019381515431177e-02 -2.3921228563682753e+03 -3.9937604381821846e+05 -3.7073731535797733e+08 +3.9384053033426021e+12 -3.5563580531566270e+23 
+4.9000000000000004e+00 -2.1019390190889557e-02 -2.3921226452589549e+03 -3.9939371612552728e+05 -3.6960120762671852e+08 +3.9324275736924644e+12 -3.5548627662862756e+23 
+5.0000000000000000e+00 -2.1019400045502616e-02 -2.3921223080709442e+03 -3.9939755455091567e+05 -3.6893915031200278e+08 +3.9301092253441714e+12 -3.5568445516645307e+23 
+5.1000000000000005e+00 -2.1019411367768106e-02 -2.3921217809363343e+03 -3.9938837358674320e+05 -3.6877203115073603e+08 +3.9316329859494609e+12 -3.5624622671333106e+23 
+5.2000000000000002e+00 -2.1019423972471380e-02 -2.3921210625595536e+03 -3.9936809601053741e+05 -3.6904271237603778e+08 +3.9364699175140151e+12 -3.5710929493311938e+23 
+5.3000000000000007e+00 -2.1019437556056415e-02 -2.3921201672607958e+03 -3.9933892301642557e+05 -3.6967452824634552e+08 +3.9439130521082720e+12 -3.5819181139963677e+23 
+5.4000000000000004e+00 -2.1019451814926076e-02 -2.3921191093731341e+03 -3.9930305516745866e+05 -3.7059082309201550e+08 +3.9532554744399272e+12 -3.5941193068759016e+23 
+5.5000000000000000e+00 -2.1019466445434069e-02 -2.3921179032444775e+03 -3.9926269230882387e+05 -3.7171495267934048e+08 +3.9637903290992275e+12 -3.6068781082024953e+23 
+5.6000000000000005e+00 -2.1019481144086510e-02 -2.3921165631763238e+03 -3.9922003653607104e+05 -3.7297023697533363e+08 +3.9748105736784355e+12 -3.6193759913201473e+23 
+5.7000000000000002e+00 -2.1019495607218535e-02 -2.3921151035227958e+03 -3.9917728737804922e+05 -3.7428003692402941e+08 +3.9856093803226929e+12 -3.6307945526963373e+23 
+5.8000000000000007e+00 -2.1019509531232630e-02 -2.3921135386168412e+03 -3.9913664541370719e+05 -3.7556769649263787e+08 +3.9954798314153481e+12 -3.6403153362887237e+23 
+5.9000000000000004e+00 -2.1019522612578175e-02 -2.3921118827779515e+03 -3.9910031184192235e+05 -3.7675655018198037e+08 +4.0037149615032837e+12 -3.6471198605279195e+23 
+6.0000000000000000e+00 -2.1019534547651483e-02 -2.3921101503393397e+03 -3.9907048726886814e+05 -3.7776994114105666e+08 +4.0096078473591157e+12 -3.6503896649168833e+23 
+6.1000000000000005e+00 -2.1019545117895090e-02 -2.3921083593662152e+03 -3.9904842548411258e+05 -3.7855813000288159e+08 +4.0126883961537642e+12 -3.6495691407901053e+23 
+6.2000000000000002e+00 -2.1019554445021221e-02 -2.3921065428058960e+03 -3.9903159575935797e+05 -3.7917899829168969e+08 +4.0134335611149399e+12 -3.6451539100237383e+23 
+6.3000000000000007e+00 -2.1019562735769860e-02 -2.3921047373420638e+03 -3.9901652037854970e+05 -3.7971734729943901e+08 +4.0125571361346196e+12 -3.6379024504573983e+23 
+6.4000000000000004e+00 -2.1019570196872620e-02 -2.3921029796589146e+03 -3.9899972165425424e+05 -3.8025797731367069e+08 +4.0107729078530869e+12 -3.6285732337853408e+23 
+6.5000000000000000e+00 -2.1019577035109760e-02 -2.3921013064272051e+03 -3.9897772250491922e+05 -3.8088567949830830e+08 +4.0087946172426138e+12 -3.6179247077066361e+23 
+6.6000000000000005e+00 -2.1019583457203467e-02 -2.3920997543345188e+03 -3.9894704506851686e+05 -3.8168525700495124e+08 +4.0073360661709316e+12 -3.6067153528282885e+23 
+6.7000000000000002e+00 -2.1019589669936084e-02 -2.3920983600510449e+03 -3.9890421229216323e+05 -3.8274150051136005e+08 +4.0071109929132783e+12 -3.5957036150943998e+23 
+6.8000000000000007e+00 -2.1019595880037982e-02 -2.3920971602619243e+03 -3.9884574642913236e+05 -3.8413921138584989e+08 +4.0088331902642148e+12 -3.5856479702354639e+23 
+6.9000000000000004e+00 -2.1019602294248260e-02 -2.3920961916501715e+03 -3.9876816981131438e+05 -3.8596319003563678e+08 +4.0132164471361499e+12 -3.5773068929884076e+23 
+7.0000000000000000e+00 -2.1019609119316902e-02 -2.3920954908948133e+03 -3.9866800499596522e+05 -3.8829823288188159e+08 +4.0209745299737319e+12 -3.5714388433835169e+23 
+7.1000000000000005e+00 -2.1019616490104805e-02 -2.3920950878168901e+03 -3.9854267893143411e+05 -3.9120574302095169e+08 +4.0326474697750132e+12 -3.5686524144506212e+23 
+7.2000000000000002e+00 -2.1019624253878710e-02 -2.3920949848157857e+03 -3.9839323573810147e+05 -3.9465355488699883e+08 +4.0480803727626738e+12 -3.5689567320882649e+23 
+7.3000000000000007e+00 -2.1019632185984783e-02 -2.3920951774405530e+03 -3.9822162361360446e+05 -3.9858611395869392e+08 +4.0669446301542031e+12 -3.5722110643578113e+23 
+7.4000000000000004e+00 -2.1019640061772413e-02 -2.3920956612393543e+03 -3.9802979080466804e+05 -4.0294786482790154e+08 +4.0889116280467520e+12 -3.5782746758014775e+23 
+7.5000000000000000e+00 -2.1019647656636838e-02 -2.3920964317477365e+03 -3.9781968612717424e+05 -4.0768324349974531e+08 +4.1136527094640947e+12 -3.5870068081958417e+23 
+7.6000000000000005e+00 -2.1019654745938168e-02 -2.3920974845101091e+03 -3.9759325801822462e+05 -4.1273669147761667e+08 +4.1408392442043506e+12 -3.5982667166465499e+23 
+7.7000000000000002e+00 -2.1019661105009097e-02 -2.3920988150808821e+03 -3.9735245438789559e+05 -4.1805265906196809e+08 +4.1701426494864092e+12 -3.6119136847950994e+23 
+7.8000000000000007e+00 -2.1019666509255446e-02 -2.3921004189915307e+03 -3.9709922427413566e+05 -4.2357557846958077e+08 +4.2012342476143525e+12 -3.6278069416606301e+23 
+7.9000000000000004e+00 -2.1019670733986060e-02 -2.3921022918021345e+03 -3.9683551535207627e+05 -4.2924990334097862e+08 +4.2337854718163442e+12 -3.6458057785940381e+23 
+8.0000000000000000e+00 -2.1019673554589453e-02 -2.3921044290506102e+03 -3.9656327631789446e+05 -4.3502007161971587e+08 +4.2674676753343159e+12 -3.6657694432773101e+23 
+8.0999999999999996e+00 -2.1019674854998775e-02 -2.3921068025911040e+03 -3.9628544089049561e+05 -4.4081600100969523e+08 +4.3018581564925635e+12 -3.6874540891048736e+23 
+8.2000000000000011e+00 -2.1019674953415311e-02 -2.3921092895216634e+03 -3.9600888372928672e+05 -4.4650951650155884e+08 +4.3361579390198027e+12 -3.7102034674381797e+23 
+8.3000000000000007e+00 -2.1019674276664083e-02 -2.3921117432348192e+03 -3.9574146550929878e+05 -4.5195790767969161e+08 +4.3694739148005625e+12 -3.7332581936931719e+23 
+8.4000000000000004e+00 -2.1019673251496618e-02 -2.3921140171450947e+03 -3.9549104585043684e+05 -4.5701848079850245e+08 +4.4009130623805479e+12 -3.7558589324120764e+23 
+8.5000000000000000e+00 -2.1019672304676437e-02 -2.3921159646635929e+03 -3.9526548454004776e+05 -4.6154853938895011e+08 +4.4295823457567021e+12 -3.7772463393827186e+23 
+8.5999999999999996e+00 -2.1019671863029350e-02 -2.3921174391828035e+03 -3.9507264224298211e+05 -4.6540537335879236e+08 +4.4545886591760537e+12 -3.7966610321297829e+23 
+8.7000000000000011e+00 -2.1019672353323811e-02 -2.3921182941110255e+03 -3.9492037890989688e+05 -4.6844628339300627e+08 +4.4750389509328027e+12 -3.8133436566975868e+23 
+8.8000000000000007e+00 -2.1019674202350735e-02 -2.3921183828518560e+03 -3.9481655466659035e+05 -4.7052856792843270e+08 +4.4900401595510811e+12 -3.8265348555442107e+23 
+8.9000000000000004e+00 -2.1019677836872645e-02 -2.3921175588154292e+03 -3.9476902937292383e+05 -4.7150952911581635e+08 +4.4986992410637871e+12 -3.8354752792246065e+23 
+9.0000000000000000e+00 -2.1019683683732096e-02 -2.3921156753900214e+03 -3.9478566387840360e+05 -4.7124645410449326e+08 +4.5001230759169980e+12 -3.8394055379349733e+23 
+9.0999999999999996e+00 -2.1019691984439339e-02 -2.3921126577483046e+03 -3.9487027036973211e+05 -4.6967204359519732e+08 +4.4938600988382686e+12 -3.8378929088030802e+23 
+9.2000000000000011e+00 -2.1019702239909805e-02 -2.3921087179880956e+03 -3.9501047632872866e+05 -4.6702049813453072e+08 +4.4812241700746865e+12 -3.8318108995010260e+23 
+9.3000000000000007e+00 -2.1019713765793556e-02 -2.3921041399734372e+03 -3.9518986139461282e+05 -4.6360141939406228e+08 +4.4639706415192695e+12 -3.8223596511213576e+23 
+9.4000000000000004e+00 -2.1019725877689108e-02 -2.3920992075826407e+03 -3.9539200454934034e+05 -4.5972441917951661e+08 +4.4438549169058311e+12 -3.8107393333797180e+23 
+9.5000000000000000e+00 -2.1019737891311268e-02 -2.3920942046610226e+03 -3.9560048630779015e+05 -4.5569908559242761e+08 +4.4226322786152061e+12 -3.7981500490450841e+23 
+9.6000000000000014e+00 -2.1019749122295997e-02 -2.3920894150763056e+03 -3.9579888614459959e+05 -4.5183502280299425e+08 +4.4020580912147100e+12 -3.7857919461522592e+23 
+9.7000000000000011e+00 -2.1019758886291484e-02 -2.3920851226924583e+03 -3.9597078372128989e+05 -4.4844183193278289e+08 +4.3838877030008711e+12 -3.7748651629922417e+23 
+9.8000000000000007e+00 -2.1019766498955889e-02 -2.3920816113705214e+03 -3.9609975882995519e+05 -4.4582911218632591e+08 +4.3698764529352881e+12 -3.7665698332971656e+23 
+9.9000000000000004e+00 -2.1019771275968650e-02 -2.3920791649664061e+03 -3.9616939147888456e+05 -4.4430645965101665e+08 +4.3617796648707446e+12 -3.7621060833565454e+23 
+1.0000000000000000e+01 -2.1019772532957264e-02 -2.3920780673496765e+03 -3.9616326107392425e+05 -4.4418347936421341e+08 +4.3613527070077661e+12 -3.7626740622781649e+23 
+1.0100000000000001e+01 -2.1019769830182198e-02 -2.3920784975262377e+03 -3.9607089113739622e+05 -4.4565965877226907e+08 +4.3697239285374194e+12 -3.7690358602428155e+23 
+1.0200000000000001e+01 -2.1019763706355225e-02 -2.3920802150616646e+03 -3.9590558125123032e+05 -4.4849401835415554e+08 +4.3855136087808428e+12 -3.7802013231741932e+23 
+1.0300000000000001e+01 -2.1019754944740961e-02 -2.3920828746824945e+03 -3.9568657391552953e+05 -4.5233548008491778e+08 +4.4067151077490986e+12 -3.7947422949125172e+23 
+1.0400000000000000e+01 -2.1019744328595491e-02 -2.3920861311162416e+03 -3.9543311162296578e+05 -4.5683296566551346e+08 +4.4313217826394219e+12 -3.8112306163760581e+23 
+1.0500000000000000e+01 -2.1019732641292182e-02 -2.3920896390551411e+03 -3.9516443856859981e+05 -4.6163536977500141e+08 +4.4573268496536475e+12 -3.8282380479564792e+23 
+1.0600000000000001e+01 -2.1019720666041755e-02 -2.3920930532413345e+03 -3.9489979652241408e+05 -4.6639162571780074e+08 +4.4827237269235439e+12 -3.8443364656649261e+23 
+1.0700000000000001e+01 -2.1019709186143508e-02 -2.3920960283897848e+03 -3.9465842856937915e+05 -4.7075064593312395e+08 +4.5055057238370303e+12 -3.8580976836391779e+23 
+1.0800000000000001e+01 -2.1019698984912516e-02 -2.3920982192102988e+03 -3.9445957805661729e+05 -4.7436133855613816e+08 +4.5236661267827861e+12 -3.8680935023096550e+23 
+1.0900000000000000e+01 -2.1019690845605423e-02 -2.3920992804308466e+03 -3.9432248744218482e+05 -4.7687262594976240e+08 +4.5351982967862129e+12 -3.8728957651200536e+23 
+1.1000000000000000e+01 -2.1019685551532167e-02 -2.3920988667633278e+03 -3.9426639995811286e+05 -4.7793341821714723e+08 +4.5380955310117676e+12 -3.8710762791526731e+23 
+1.1100000000000001e+01 -2.1019683662866641e-02 -2.3920967384498035e+03 -3.9430480967623804e+05 -4.7729456420463902e+08 +4.5309450016507266e+12 -3.8616516055044179e+23 
+1.1200000000000001e+01 -2.1019684847477620e-02 -2.3920930777833114e+03 -3.9442821733127174e+05 -4.7511461585978973e+08 +4.5147091122826738e+12 -3.8454171695450673e+23 
+1.1300000000000001e+01 -2.1019688550110507e-02 -2.3920881725817972e+03 -3.9462137479107344e+05 -4.7165405882985002e+08 +4.4909441138528271e+12 -3.8236131336141322e+23 
+1.1400000000000000e+01 -2.1019694215546562e-02 -2.3920823106546350e+03 -3.9486903427088010e+05 -4.6717337393089002e+08 +4.4612062345674033e+12 -3.7974796494643532e+23 
+1.1500000000000000e+01 -2.1019701288480845e-02 -2.3920757798359900e+03 -3.9515594683132035e+05 -4.6193305984304881e+08 +4.4270517940892031e+12 -3.7682569192794459e+23 
+1.1600000000000001e+01 -2.1019709213746882e-02 -2.3920688679186860e+03 -3.9546686551256571e+05 -4.5619358400430477e+08 +4.3900369497621816e+12 -3.7371850532813414e+23 
