# multipoles
# s[mm] polynom_b[n=0][T/m^n] polynom_b[n=2][T/m^n] polynom_b[n=4][T/m^n] polynom_b[n=6][T/m^n] polynom_b[n=8][T/m^n] polynom_b[n=14][T/m^n] 
+0.0000000000000000e+00 +4.1830421344275338e-05 -2.4696741157656884e+03 -4.8187450218007632e+02 +2.9240130769883640e+07 +3.6605364032808730e+12 -4.3536744677708863e+23 
+1.0000000000000001e-01 +4.1825612917274599e-05 -2.4696725749083212e+03 -5.6886272514858172e+02 +3.0831061375534639e+07 +3.6510272897729683e+12 -4.3457141504778277e+23 
+2.0000000000000001e-01 +4.1812361972369571e-05 -2.4696683100099976e+03 -8.0973819051670614e+02 +3.5238852896311074e+07 +3.6246717661378770e+12 -4.3236490003271708e+23 
+3.0000000000000004e-01 +4.1792430089168729e-05 -2.4696618576086680e+03 -1.1743656681047109e+03 +4.1915981264185861e+07 +3.5847276843765679e+12 -4.2902027953179342e+23 
+4.0000000000000002e-01 +4.1767578908196589e-05 -2.4696537542578976e+03 -1.6326092488204335e+03 +5.0314912410187408e+07 +3.5344529458026812e+12 -4.2480993386908315e+23 
+5.0000000000000000e-01 +4.1739569951395007e-05 -2.4696445364772467e+03 -2.1543346109773661e+03 +5.9888136861361608e+07 +3.4771053257452979e+12 -4.2000623642991344e+23 
+6.0000000000000009e-01 +4.1710164811045249e-05 -2.4696347408069173e+03 -2.7094064603488873e+03 +7.0088130003919482e+07 +3.4159426772881455e+12 -4.1488156489307538e+23 
+7.0000000000000007e-01 +4.1681125097473758e-05 -2.4696249037915468e+03 -3.2676893108930262e+03 +8.0367364372594163e+07 +3.3542228677994961e+12 -4.0970829771006506e+23 
+8.0000000000000004e-01 +4.1654212372937037e-05 -2.4696155619635592e+03 -3.7990482055351922e+03 +9.0178320294011936e+07 +3.2952037261439302e+12 -4.0475881133984399e+23 
+9.0000000000000002e-01 +4.1631188196117193e-05 -2.4696072518521046e+03 -4.2733483983274755e+03 +9.8973481961850002e+07 +3.2421430591819604e+12 -4.0030548080789475e+23 
+1.0000000000000000e+00 +4.1613814227295311e-05 -2.4696005100183174e+03 -4.6604535796903092e+03 +1.0620530862004979e+08 +3.1982988042870386e+12 -3.9662068861354468e+23 
+1.1000000000000001e+00 +4.1603393308294958e-05 -2.4695957434983388e+03 -4.9373582362390616e+03 +1.1145377504883766e+08 +3.1661794833957300e+12 -3.9391467824939693e+23 
+1.2000000000000002e+00 +4.1599393763534541e-05 -2.4695928414615223e+03 -5.1095687315951254e+03 +1.1480873864538339e+08 +3.1452968924420049e+12 -3.9214919040612524e+23 
+1.3000000000000000e+00 +4.1600825130646096e-05 -2.4695915635627948e+03 -5.1897216960997548e+03 +1.1648756374269544e+08 +3.1344134575463057e+12 -3.9122382945486218e+23 
+1.4000000000000001e+00 +4.1606697054839591e-05 -2.4695916694883131e+03 -5.1904522909393991e+03 +1.1670759181074077e+08 +3.1322917222808833e+12 -3.9103820627067490e+23 
+1.5000000000000000e+00 +4.1616019138844043e-05 -2.4695929189134931e+03 -5.1243961403588000e+03 +1.1568617109009916e+08 +3.1376941970374204e+12 -3.9149193005066658e+23 
+1.6000000000000001e+00 +4.1627801015586556e-05 -2.4695950715198373e+03 -5.0041886590695512e+03 +1.1364064737025459e+08 +3.1493834017824355e+12 -3.9248461021742958e+23 
+1.7000000000000002e+00 +4.1641052209983071e-05 -2.4695978869602591e+03 -4.8424665216959384e+03 +1.1078838515708135e+08 +3.1661217636187231e+12 -3.9391585137825673e+23 
+1.8000000000000000e+00 +4.1654782389253026e-05 -2.4696011249273843e+03 -4.6518645877725967e+03 +1.0734672124496479e+08 +3.1866718501104917e+12 -3.9568526574037953e+23 
+1.9000000000000001e+00 +4.1668001178958137e-05 -2.4696045451026916e+03 -4.4450182092439973e+03 +1.0353299977444714e+08 +3.2097961921811904e+12 -3.9769246358074569e+23 
+2.0000000000000000e+00 +4.1679718081484945e-05 -2.4696079071295480e+03 -4.2345646014304284e+03 +9.9564594645921275e+07 +3.2342571650040762e+12 -3.9983704626039412e+23 
+2.1000000000000001e+00 +4.1689183473532340e-05 -2.4696110086697563e+03 -4.0314339685501209e+03 +9.5633986503084108e+07 +3.2589364153834043e+12 -4.0202675334316978e+23 
+2.2000000000000002e+00 +4.1696610217283491e-05 -2.4696137991493742e+03 -3.8397435000089745e+03 +9.1834322103300020e+07 +3.2831914278620132e+12 -4.0420180592439161e+23 
+2.3000000000000003e+00 +4.1702451933055847e-05 -2.4696162659779770e+03 -3.6619050485595108e+03 +8.8233881342385963e+07 +3.3064988217684150e+12 -4.0631055560052154e+23 
+2.4000000000000004e+00 +4.1707162126808498e-05 -2.4696183965290970e+03 -3.5003322423240293e+03 +8.4900972603946745e+07 +3.3283350668172793e+12 -4.0830134534468597e+23 
+2.5000000000000000e+00 +4.1711194456205709e-05 -2.4696201782229109e+03 -3.3574364490204994e+03 +8.1903868405958265e+07 +3.3481768195482231e+12 -4.1012252873835643e+23 
+2.6000000000000001e+00 +4.1715002506579393e-05 -2.4696215984582150e+03 -3.2356300515553971e+03 +7.9310857179424748e+07 +3.3655006542572026e+12 -4.1172245474843706e+23 
+2.7000000000000002e+00 +4.1719039796691372e-05 -2.4696226446125015e+03 -3.1373264798270093e+03 +7.7190244067183852e+07 +3.3797830579787124e+12 -4.1304946738671905e+23 
+2.8000000000000003e+00 +4.1723760004482396e-05 -2.4696233041123737e+03 -3.0649367841324301e+03 +7.5610296484413818e+07 +3.3905007140772510e+12 -4.1405192178145498e+23 
+2.9000000000000004e+00 +4.1729616646894625e-05 -2.4696235643356181e+03 -3.0208743673337804e+03 +7.4639319070605963e+07 +3.3971301123336528e+12 -4.1467816209520595e+23 
+3.0000000000000000e+00 +4.1737063345631946e-05 -2.4696234126907530e+03 -3.0075511743830316e+03 +7.4345593612346724e+07 +3.3991478606343599e+12 -4.1487653911137926e+23 
+3.1000000000000001e+00 +4.1746446491447835e-05 -2.4696228651117854e+03 -3.0251097487613047e+03 +7.4746971267685056e+07 +3.3963726432629814e+12 -4.1462588592256199e+23 
+3.2000000000000002e+00 +4.1757684101271555e-05 -2.4696220517937409e+03 -3.0646075567001894e+03 +7.5659464384144738e+07 +3.3899920480267261e+12 -4.1402699806133668e+23 
+3.3000000000000003e+00 +4.1770587024727522e-05 -2.4696211314765137e+03 -3.1148317278384475e+03 +7.6848639906524032e+07 +3.3815358157694429e+12 -4.1321115767595891e+23 
+3.4000000000000004e+00 +4.1784966082346904e-05 -2.4696202628886904e+03 -3.1645700089159241e+03 +7.8080075272436023e+07 +3.3725336301619180e+12 -4.1230964342463262e+23 
+3.5000000000000000e+00 +4.1800632130382963e-05 -2.4696196047717244e+03 -3.2026094577970975e+03 +7.9119336276749805e+07 +3.3645152382049312e+12 -4.1145373783677106e+23 
+3.6000000000000001e+00 +4.1817395987720482e-05 -2.4696193158550682e+03 -3.2177377394462919e+03 +7.9731998641608551e+07 +3.3590103340516938e+12 -4.1077472032218021e+23 
+3.7000000000000002e+00 +4.1835068533488734e-05 -2.4696195548870937e+03 -3.1987415870737191e+03 +7.9683623155966759e+07 +3.3575486901505234e+12 -4.1040387478026885e+23 
+3.8000000000000003e+00 +4.1853460571213513e-05 -2.4696204805921675e+03 -3.1344089202749274e+03 +7.8739789664897814e+07 +3.3616599788902109e+12 -4.1047247935912617e+23 
+3.9000000000000004e+00 +4.1872382935745154e-05 -2.4696222517042324e+03 -3.0135271944985475e+03 +7.6666070648852587e+07 +3.3728739109879102e+12 -4.1111181437300149e+23 
+4.0000000000000000e+00 +4.1891646502703541e-05 -2.4696250269705147e+03 -2.8248831962773074e+03 +7.3228027685907513e+07 +3.3927202550882432e+12 -4.1245316354834579e+23 
+4.1000000000000005e+00 +4.1911046279296278e-05 -2.4696288886231341e+03 -2.5623590792980058e+03 +6.8294269842392117e+07 +3.4220737963364683e+12 -4.1457409207237503e+23 
+4.2000000000000002e+00 +4.1930314141637142e-05 -2.4696336129367114e+03 -2.2402134920518947e+03 +6.2145517084415786e+07 +3.4591897987645718e+12 -4.1733731458698035e+23 
+4.2999999999999998e+00 +4.1949166108345707e-05 -2.4696388996767032e+03 -1.8778000797128550e+03 +5.5165530071631804e+07 +3.5016685818302954e+12 -4.2055182977867560e+23 
+4.4000000000000004e+00 +4.1967318229777694e-05 -2.4696444486144051e+03 -1.4944723182901832e+03 +4.7738067992466755e+07 +3.5471104680913613e+12 -4.2402663603803505e+23 
+4.5000000000000000e+00 +4.1984486568203402e-05 -2.4696499595288901e+03 -1.1095831877988669e+03 +4.0246880898135476e+07 +3.5931158324533169e+12 -4.2757073521643469e+23 
+4.6000000000000005e+00 +4.2000387184961628e-05 -2.4696551321956772e+03 -7.4248593753925991e+02 +3.3075724151576906e+07 +3.6372850182470908e+12 -4.3099312697023980e+23 
+4.7000000000000002e+00 +4.2014736067802346e-05 -2.4696596663699920e+03 -4.1253472640722134e+02 +2.6608366745945841e+07 +3.6772183008509800e+12 -4.3410280741529363e+23 
+4.8000000000000007e+00 +4.2027249284866501e-05 -2.4696632618303197e+03 -1.3908263894859942e+02 +2.1228561225140523e+07 +3.7105160390066074e+12 -4.3670877715280776e+23 
+4.9000000000000004e+00 +4.2037642913523421e-05 -2.4696656183589994e+03 +5.8517472244823615e+01 +1.7320055915391527e+07 +3.7347786155485601e+12 -4.3862003838069776e+23 
+5.0000000000000000e+00 +4.2045633010454392e-05 -2.4696664357312620e+03 +1.6091237440232945e+02 +1.5266605592569293e+07 +3.7476063780990986e+12 -4.3964559112896838e+23 
+5.1000000000000005e+00 +4.2051096138615631e-05 -2.4696655216921727e+03 +1.5552829633119541e+02 +1.5318611596669108e+07 +3.7474296514326943e+12 -4.3966011962566724e+23 
+5.2000000000000002e+00 +4.2054550921611893e-05 -2.4696631158767673e+03 +5.6909823234418219e+01 +1.7193053359303061e+07 +3.7359987120734048e+12 -4.3880104744490992e+23 
+5.3000000000000007e+00 +4.2056676741218963e-05 -2.4696595659652162e+03 -1.1361542108157674e+02 +2.0473500888394743e+07 +3.7158941024855063e+12 -4.3727149847027355e+23 
+5.4000000000000004e+00 +4.2058152771378850e-05 -2.4696552195755357e+03 -3.3472276998728245e+02 +2.4743570510675594e+07 +3.6896961261602310e+12 -4.3527458325673283e+23 
+5.5000000000000000e+00 +4.2059658256741241e-05 -2.4696504243476370e+03 -5.8508649654383339e+02 +2.9586861792350538e+07 +3.6599851735090801e+12 -4.3301341723741955e+23 
+5.6000000000000005e+00 +4.2061872472543819e-05 -2.4696455279300731e+03 -8.4338046751291643e+02 +3.4586967904079556e+07 +3.6293416682709429e+12 -4.3069111776343073e+23 
+5.7000000000000002e+00 +4.2065474606961124e-05 -2.4696408779441585e+03 -1.0882798964299016e+03 +3.9327503747461453e+07 +3.6003459194619331e+12 -4.2851079549615675e+23 
+5.8000000000000007e+00 +4.2071143982499261e-05 -2.4696368220534719e+03 -1.2984579116964519e+03 +4.3392050707280986e+07 +3.5755784123768267e+12 -4.2667557128654207e+23 
+5.9000000000000004e+00 +4.2079559750224234e-05 -2.4696337078694419e+03 -1.4525901514732234e+03 +4.6364229797440998e+07 +3.5576194266285400e+12 -4.2538855438551108e+23 
+6.0000000000000000e+00 +4.2091401238859406e-05 -2.4696318830552241e+03 -1.5293498375409397e+03 +4.7827624666042417e+07 +3.5490494328002383e+12 -4.2485286451149605e+23 
+6.1000000000000005e+00 +4.2107067802298906e-05 -2.4696315723414609e+03 -1.5148461458382808e+03 +4.7510699658697098e+07 +3.5515507557952246e+12 -4.2520011242359879e+23 
+6.2000000000000002e+00 +4.2125839529907555e-05 -2.4696325089038369e+03 -1.4249241755846735e+03 +4.5721322911430895e+07 +3.5632137344864785e+12 -4.2627590458014177e+23 
+6.3000000000000007e+00 +4.2146716547702289e-05 -2.4696343029868385e+03 -1.2828649874147793e+03 +4.2912244136341192e+07 +3.5812305546546675e+12 -4.2785433777507749e+23 
+6.4000000000000004e+00 +4.2168699089559564e-05 -2.4696365648690335e+03 -1.1119479622253652e+03 +3.9536186090855628e+07 +3.6027935435881465e+12 -4.2970951694321196e+23 
+6.5000000000000000e+00 +4.2190787473581136e-05 -2.4696389048518972e+03 -9.3545145382397402e+02 +3.6045856091193721e+07 +3.6250951058942036e+12 -4.3161555110274200e+23 
+6.6000000000000005e+00 +4.2211981734128270e-05 -2.4696409331521445e+03 -7.7665786034285202e+02 +3.2894025015318979e+07 +3.6453273172182100e+12 -4.3334653079463410e+23 
+6.7000000000000002e+00 +4.2231282143464038e-05 -2.4696422600584342e+03 -6.5884611926482387e+02 +3.0533409034140605e+07 +3.6606825375856216e+12 -4.3467656266551513e+23 
+6.8000000000000007e+00 +4.2247688913715371e-05 -2.4696424958421640e+03 -6.0529597518359583e+02 +2.9416736857362032e+07 +3.6683530625935815e+12 -4.3537974978125080e+23 
+6.9000000000000004e+00 +4.2260202251636776e-05 -2.4696412507716404e+03 -6.3928735900986214e+02 +2.9996740526099451e+07 +3.6655311691103750e+12 -4.3523019400646151e+23 
+7.0000000000000000e+00 +4.2267822317710839e-05 -2.4696381351026698e+03 -7.8410075989053018e+02 +3.2726160427046169e+07 +3.6494090924773423e+12 -4.3400199505113772e+23 
+7.1000000000000005e+00 +4.2269873391211585e-05 -2.4696328848813650e+03 -1.0553917371507414e+03 +3.7908248688439995e+07 +3.6181098550741523e+12 -4.3154481596776405e+23 
+7.2000000000000002e+00 +4.2266975725516122e-05 -2.4696257391726963e+03 -1.4383226588392197e+03 +4.5248403875262626e+07 +3.5734791250634238e+12 -4.2801054631313008e+23 
+7.3000000000000007e+00 +4.2260073726348802e-05 -2.4696170628439636e+03 -1.9104303258258149e+03 +5.4302525573981702e+07 +3.5182934158182734e+12 -4.2362664253495350e+23 
+7.4000000000000004e+00 +4.2250111627343996e-05 -2.4696072207106163e+03 -2.4492540305520483e+03 +6.4626552726819903e+07 +3.4553290362708301e+12 -4.1862054951914838e+23 
+7.5000000000000000e+00 +4.2238033844667579e-05 -2.4695965776423573e+03 -3.0323304792631448e+03 +7.5776383629321292e+07 +3.3873625057821772e+12 -4.1321972398333814e+23 
+7.6000000000000005e+00 +4.2224784638231003e-05 -2.4695854984622238e+03 -3.6371986086638790e+03 +8.7307951704297483e+07 +3.3171701615764746e+12 -4.0765161237501148e+23 
+7.7000000000000002e+00 +4.2211308334472449e-05 -2.4695743480130532e+03 -4.2413964078719691e+03 +9.8777175423027635e+07 +3.2475284185350312e+12 -4.0214366553562692e+23 
+7.8000000000000007e+00 +4.2198549309849707e-05 -2.4695634911545194e+03 -4.8224610142449310e+03 +1.0973995938140014e+08 +3.1812137651192485e+12 -3.9692333861363421e+23 
+7.9000000000000004e+00 +4.2187451902195644e-05 -2.4695532927317345e+03 -5.3579303420101951e+03 +1.1975222123098987e+08 +3.1210026191342021e+12 -3.9221808248455036e+23 
+8.0000000000000000e+00 +4.2178960372894791e-05 -2.4695441175680262e+03 -5.8253433139730005e+03 +1.2836989415656516e+08 +3.0696713191425762e+12 -3.8825534368396856e+23 
+8.0999999999999996e+00 +4.2173828604020451e-05 -2.4695362549471579e+03 -6.2071499818965322e+03 +1.3525044560706115e+08 +3.0293446412387529e+12 -3.8520777258769911e+23 
+8.2000000000000011e+00 +4.2172048627529048e-05 -2.4695296918833205e+03 -6.5054505403441626e+03 +1.4045757181647420e+08 +2.9995406247079814e+12 -3.8302880635059091e+23 
+8.3000000000000007e+00 +4.2173421888275357e-05 -2.4695243397889831e+03 -6.7272592733757256e+03 +1.4415654973191485e+08 +2.9791255063362300e+12 -3.8161707253120122e+23 
+8.4000000000000004e+00 +4.2177749898572390e-05 -2.4695201100960544e+03 -6.8795895577071851e+03 +1.4651264226110694e+08 +2.9669655947125806e+12 -3.8087120262835473e+23 
+8.5000000000000000e+00 +4.2184834165404084e-05 -2.4695169142349741e+03 -6.9694548429049328e+03 +1.4769111350387874e+08 +2.9619271920523813e+12 -3.8068982776024446e+23 
+8.5999999999999996e+00 +4.2194476203899626e-05 -2.4695146636392046e+03 -7.0038684125093841e+03 +1.4785722470190457e+08 +2.9628766163222671e+12 -3.8097158002998747e+23 
+8.7000000000000011e+00 +4.2206477498665183e-05 -2.4695132697305107e+03 -6.9898441804712402e+03 +1.4717624776319793e+08 +2.9686801274869692e+12 -3.8161508800330039e+23 
+8.8000000000000007e+00 +4.2220639521720803e-05 -2.4695126439309283e+03 -6.9343959369724562e+03 +1.4581345150220543e+08 +2.9782040057223911e+12 -3.8251898179592301e+23 
+8.9000000000000004e+00 +4.2236763890856095e-05 -2.4695126977036043e+03 -6.8445355746319510e+03 +1.4393407554831991e+08 +2.9903146799869414e+12 -3.8358189966565798e+23 
+9.0000000000000000e+00 +4.2254651995880427e-05 -2.4695133424433866e+03 -6.7272782604604099e+03 +1.4170341121939328e+08 +3.0038783107340405e+12 -3.8470246467179154e+23 
+9.0999999999999996e+00 +4.2274145043728386e-05 -2.4695145026118380e+03 -6.5883822810754909e+03 +1.3925252399868134e+08 +3.0180104085477729e+12 -3.8580236000679375e+23 
+9.2000000000000011e+00 +4.2295242717363604e-05 -2.4695161546895042e+03 -6.4285906054225261e+03 +1.3657577213079056e+08 +3.0328228529629976e+12 -3.8689544970518169e+23 
+9.3000000000000007e+00 +4.2317984417680552e-05 -2.4695182881955138e+03 -6.2473906244367026e+03 +1.3363330807508147e+08 +3.0486767714371260e+12 -3.8801865235097095e+23 
+9.4000000000000004e+00 +4.2342409450646920e-05 -2.4695208926187065e+03 -6.0442712394931941e+03 +1.3038530878494179e+08 +3.0659331616973501e+12 -3.8920887892549017e+23 
+9.5000000000000000e+00 +4.2368557227447058e-05 -2.4695239574801649e+03 -5.8187197815708641e+03 +1.2679192615423852e+08 +3.0849531526746611e+12 -3.9050304794399365e+23 
+9.6000000000000014e+00 +4.2396467053203802e-05 -2.4695274722693357e+03 -5.5702250993444231e+03 +1.2281333604421222e+08 +3.1060977487603638e+12 -3.9193807086765404e+23 
+9.7000000000000011e+00 +4.2426178327706819e-05 -2.4695314265033999e+03 -5.2982747234852950e+03 +1.1840969362465100e+08 +3.1297280614324546e+12 -3.9355086518264075e+23 
+9.8000000000000007e+00 +4.2457730379929785e-05 -2.4695358096782215e+03 -5.0023572134968008e+03 +1.1354117039991005e+08 +3.1562051169080742e+12 -3.9537834349957186e+23 
+9.9000000000000004e+00 +4.2491162600693940e-05 -2.4695406113084287e+03 -4.6819602235484372e+03 +1.0816792350362122e+08 +3.1858900164068018e+12 -3.9745742271745780e+23 
+1.0000000000000000e+01 +4.2526514330974199e-05 -2.4695458208945929e+03 -4.3365720531477718e+03 +1.0225011995608467e+08 +3.2191438108939556e+12 -3.9982501700049758e+23 
+1.0100000000000001e+01 +4.2563673657256876e-05 -2.4695513895171334e+03 -3.9680080075587111e+03 +9.5797757257563666e+07 +3.2560033328279995e+12 -4.0249154997866142e+23 
+1.0200000000000001e+01 +4.2601923654724355e-05 -2.4695571145859876e+03 -3.5873907047299726e+03 +8.9020141283406764e+07 +3.2952086195256084e+12 -4.0536148845298252e+23 
+1.0300000000000001e+01 +4.2640396060733280e-05 -2.4695627550647450e+03 -3.2081710493376313e+03 +8.2176428810953036e+07 +3.3351753831250894e+12 -4.0831280261279938e+23 
+1.0400000000000000e+01 +4.2678222791207494e-05 -2.4695680699733439e+03 -2.8437971787505571e+03 +7.5525732345267549e+07 +3.3743195676568887e+12 -4.1122347593321487e+23 
+1.0500000000000000e+01 +4.2714535506188781e-05 -2.4695728182524226e+03 -2.5077210909761498e+03 +6.9327225842905879e+07 +3.4110567963234697e+12 -4.1397147360040597e+23 
+1.0600000000000001e+01 +4.2748466036769110e-05 -2.4695767588956969e+03 -2.2133921950647400e+03 +6.3840041981109329e+07 +3.4438029081446450e+12 -4.1643477314022694e+23 
+1.0700000000000001e+01 +4.2779146237826290e-05 -2.4695796509037959e+03 -1.9742595760681672e+03 +5.9323308411450557e+07 +3.4709737678897031e+12 -4.1849135349616268e+23 
+1.0800000000000001e+01 +4.2805707837661885e-05 -2.4695812532387076e+03 -1.8037741917465185e+03 +5.6036182543318897e+07 +3.4909850850686099e+12 -4.2001918476166914e+23 
+1.0900000000000000e+01 +4.2827282647892919e-05 -2.4695813248880204e+03 -1.7153857472305147e+03 +5.4237801726419844e+07 +3.5022526744917300e+12 -4.2089624310461720e+23 
+1.1000000000000000e+01 +4.2843002464842420e-05 -2.4695796248337892e+03 -1.7225442474951112e+03 +5.4187308427842200e+07 +3.5031923229201392e+12 -4.2100050295297797e+23 
+1.1100000000000001e+01 +4.2852339870184570e-05 -2.4695760030966694e+03 -1.8337370233113104e+03 +5.6051039334121138e+07 +3.4927767649449028e+12 -4.2025211425366256e+23 
+1.1200000000000001e+01 +4.2856130904619451e-05 -2.4695706739400375e+03 -2.0375966780105971e+03 +5.9624046503624514e+07 +3.4722068381620786e+12 -4.1873994588602492e+23 
+1.1300000000000001e+01 +4.2855552338979610e-05 -2.4695639426470502e+03 -2.3177941022357118e+03 +6.4608591968726084e+07 +3.4432402441250483e+12 -4.1659503730701611e+23 
+1.1400000000000000e+01 +4.2851781023860339e-05 -2.4695561145267820e+03 -2.6579988996154134e+03 +7.0706917053775564e+07 +3.4076347932383188e+12 -4.1394843424582489e+23 
+1.1500000000000000e+01 +4.2845993725198361e-05 -2.4695474948594001e+03 -3.0418821462499195e+03 +7.7621287148737803e+07 +3.3671481680706934e+12 -4.1093117493648387e+23 
+1.1600000000000001e+01 +4.2839367235575758e-05 -2.4695383889379405e+03 -3.4531141710387756e+03 +8.5053954541334018e+07 +3.3235381239171763e+12 -4.0767430217714761e+23 
