# multipoles
# s[mm] polynom_b[n=0][T/m^n] polynom_b[n=2][T/m^n] polynom_b[n=4][T/m^n] polynom_b[n=6][T/m^n] polynom_b[n=8][T/m^n] polynom_b[n=14][T/m^n] 
+0.0000000000000000e+00 -1.4019266620094099e-04 -2.4675350841400336e+03 -7.0905954100194322e+03 +8.3599071266319245e+07 +3.3471118920270508e+12 -4.0803963729884448e+23 
+1.0000000000000001e-01 -1.4019193984804446e-04 -2.4675353310488322e+03 -7.0780642044698488e+03 +8.3531768218232021e+07 +3.3466291520753804e+12 -4.0788865322374146e+23 
+2.0000000000000001e-01 -1.4018958248099492e-04 -2.4675361241123724e+03 -7.0369287450939173e+03 +8.3215506807893604e+07 +3.3461341787754917e+12 -4.0754550286256141e+23 
+3.0000000000000004e-01 -1.4018532640273004e-04 -2.4675375419075508e+03 -6.9618728589618904e+03 +8.2478704982917264e+07 +3.3470571198381099e+12 -4.0717490463142040e+23 
+4.0000000000000002e-01 -1.4017890400130093e-04 -2.4675396629858797e+03 -6.8475815788693126e+03 +8.1149799576328814e+07 +3.3508280254760918e+12 -4.0694157149409044e+23 
+5.0000000000000000e-01 -1.4017004776718090e-04 -2.4675425658666118e+03 -6.6887415154320579e+03 +7.9057252583196208e+07 +3.3588768144287778e+12 -4.0701020891598755e+23 
+6.0000000000000009e-01 -1.4015848996613405e-04 -2.4675463291388146e+03 -6.4800358919384016e+03 +7.6029472261984304e+07 +3.3726336851816606e+12 -4.0754553821489578e+23 
+7.0000000000000007e-01 -1.4014396307409786e-04 -2.4675510313266113e+03 -6.2161510655729053e+03 +7.1894916381498918e+07 +3.3935285792936855e+12 -4.0871226623785094e+23 
+8.0000000000000004e-01 -1.4012619944894710e-04 -2.4675567509891907e+03 -5.8917717462937080e+03 +6.6482017173624538e+07 +3.4229915690109194e+12 -4.1067510700492398e+23 
+9.0000000000000002e-01 -1.4010493150542154e-04 -2.4675635666706553e+03 -5.5015833033412255e+03 +5.9619216571877725e+07 +3.4624526788598296e+12 -4.1359877211042297e+23 
+1.0000000000000000e+00 -1.4007989163055420e-04 -2.4675715569230106e+03 -5.0402707384383921e+03 +5.1134950830465041e+07 +3.5133419624166641e+12 -4.1764797474837772e+23 
+1.1000000000000001e+00 -1.4005108698332311e-04 -2.4675807126475397e+03 -4.5076973088930763e+03 +4.0974805463698722e+07 +3.5762628719408247e+12 -4.2290560205407634e+23 
+1.2000000000000002e+00 -1.4001962390458995e-04 -2.4675906741218168e+03 -3.9244400835799624e+03 +2.9552973275989644e+07 +3.6485124094326196e+12 -4.2912723522323296e+23 
+1.3000000000000000e+00 -1.3998688349736992e-04 -2.4676009939769692e+03 -3.3162541475004009e+03 +1.7400792213521834e+07 +3.7265609981813184e+12 -4.3598663079192289e+23 
+1.4000000000000001e+00 -1.3995424682726633e-04 -2.4676112248567119e+03 -2.7088939397800095e+03 +5.0495895729158213e+06 +3.8068791184710249e+12 -4.4315754868730670e+23 
+1.5000000000000000e+00 -1.3992309504499607e-04 -2.4676209193764807e+03 -2.1281153340458559e+03 -6.9692839013670953e+06 +3.8859371259003940e+12 -4.5031374150260605e+23 
+1.6000000000000001e+00 -1.3989480925422410e-04 -2.4676296301681400e+03 -1.5996733497302810e+03 -1.8124491626734782e+07 +3.9602054520645264e+12 -4.5712896636614659e+23 
+1.7000000000000002e+00 -1.3987077055291816e-04 -2.4676369098643640e+03 -1.1493229973741506e+03 -2.7884696834287625e+07 +4.0261545263677080e+12 -4.6327698015788650e+23 
+1.8000000000000000e+00 -1.3985236008910886e-04 -2.4676423110832598e+03 -8.0281996340678961e+02 -3.5718552370747827e+07 +4.0802547254297168e+12 -4.6843153689879933e+23 
+1.9000000000000001e+00 -1.3984095887021306e-04 -2.4676453864843111e+03 -5.8591798783379136e+02 -4.1094741339986898e+07 +4.1189765811425381e+12 -4.7226639918813980e+23 
+2.0000000000000000e+00 -1.3983794809820194e-04 -2.4676456886698224e+03 -5.2437350371857042e+02 -4.3481904925792374e+07 +4.1387904100251382e+12 -4.7445531769739705e+23 
+2.1000000000000001e+00 -1.3984403578164330e-04 -2.4676429949069807e+03 -6.3113968905389891e+02 -4.2597001475795612e+07 +4.1377363552459424e+12 -4.7480581653593772e+23 
+2.2000000000000002e+00 -1.3985723795528488e-04 -2.4676379808919860e+03 -8.6796744047730465e+02 -3.9150092075239450e+07 +4.1201330188556587e+12 -4.7366046711127540e+23 
+2.3000000000000003e+00 -1.3987489749968081e-04 -2.4676315469743231e+03 -1.1838049467186518e+03 -3.4099546435136355e+07 +4.0918687855833398e+12 -4.7149561182029714e+23 
+2.4000000000000004e+00 -1.3989435738714917e-04 -2.4676245934766162e+03 -1.5276016571625494e+03 -2.8403714725353766e+07 +4.0588319401724863e+12 -4.6878758757787087e+23 
+2.5000000000000000e+00 -1.3991296057018655e-04 -2.4676180207265224e+03 -1.8483068096530315e+03 -2.3020950092510141e+07 +4.0269107813404458e+12 -4.6601273191973311e+23 
+2.6000000000000001e+00 -1.3992804993870548e-04 -2.4676127290720974e+03 -2.0948686234151087e+03 -1.8909622190444034e+07 +4.0019936951698677e+12 -4.6364738749688663e+23 
+2.7000000000000002e+00 -1.3993696844492087e-04 -2.4676096188419206e+03 -2.2162362656698792e+03 -1.7028085573565986e+07 +3.9899689888141475e+12 -4.6216789244082594e+23 
+2.8000000000000003e+00 -1.3993705903587024e-04 -2.4676095903657238e+03 -2.1613588629229725e+03 -1.8334695295719024e+07 +3.9967249715440283e+12 -4.6205058496340735e+23 
+2.9000000000000004e+00 -1.3992566471287833e-04 -2.4676135439568243e+03 -1.8791863283962145e+03 -2.3787794005419619e+07 +4.0281498882451504e+12 -4.6377179963683156e+23 
+3.0000000000000000e+00 -1.3990012833301670e-04 -2.4676223799727172e+03 -1.3186664413730696e+03 -3.4345758135560684e+07 +4.0901321595025010e+12 -4.6780788098035896e+23 
+3.1000000000000001e+00 -1.3985889152143610e-04 -2.4676366284540923e+03 -4.4948286432720073e+02 -5.0586003628486872e+07 +4.1862740517090815e+12 -4.7446169929875750e+23 
+3.2000000000000002e+00 -1.3980479056140984e-04 -2.4676553383013838e+03 +6.7574333862505352e+02 -7.1562201426196143e+07 +4.3110337181138779e+12 -4.8334225645780825e+23 
+3.3000000000000003e+00 -1.3974176031419859e-04 -2.4676771881545333e+03 +1.9836578915195050e+03 -9.5947103789607093e+07 +4.4565833734861621e+12 -4.9388509215522840e+23 
+3.4000000000000004e+00 -1.3967373572829948e-04 -2.4677008566288123e+03 +3.4009053737758572e+03 -1.2241344529435661e+08 +4.6150951420994160e+12 -5.0552574109877767e+23 
+3.5000000000000000e+00 -1.3960465173682896e-04 -2.4677250223431020e+03 +4.8541305185723804e+03 -1.4963396278079414e+08 +4.7787411594825791e+12 -5.1769973859219627e+23 
+3.6000000000000001e+00 -1.3953844330515954e-04 -2.4677483639069787e+03 +6.2699776197325536e+03 -1.7628138620698279e+08 +4.9396935255728037e+12 -5.2984261793743141e+23 
+3.7000000000000002e+00 -1.3947904528928783e-04 -2.4677695599626754e+03 +7.5750925268241081e+03 -2.0102846994992360e+08 +5.0901244665530850e+12 -5.4138991951109977e+23 
+3.8000000000000003e+00 -1.3943039263366000e-04 -2.4677872891257284e+03 +8.6961198125742430e+03 -2.2254794831622496e+08 +5.2222061047849443e+12 -5.5177717787078016e+23 
+3.9000000000000004e+00 -1.3939642025375892e-04 -2.4678002300214384e+03 +9.5597045416525561e+03 -2.3951256358807302e+08 +5.3281106047593252e+12 -5.6043993002216989e+23 
+4.0000000000000000e+00 -1.3938106309034805e-04 -2.4678070612663537e+03 +1.0092491332646250e+04 -2.5059505075093845e+08 +5.4000100921444775e+12 -5.6681371068058044e+23 
+4.1000000000000005e+00 -1.3938708977176756e-04 -2.4678068244089095e+03 +1.0240178272537070e+04 -2.5480347921149200e+08 +5.4320200295510771e+12 -5.7046938980419243e+23 
+4.2000000000000002e+00 -1.3941260394235956e-04 -2.4678000126472011e+03 +1.0024673670904171e+04 -2.5248719937205243e+08 +5.4260289364196221e+12 -5.7151916220420905e+23 
+4.2999999999999998e+00 -1.3945454297968651e-04 -2.4677874820969869e+03 +9.4869386139904364e+03 -2.4433088505556467e+08 +5.3858686117189658e+12 -5.7021055465826699e+23 
+4.4000000000000004e+00 -1.3950984424161941e-04 -2.4677700888805762e+03 +8.6679345173971924e+03 -2.3101921541223097e+08 +5.3153708824779043e+12 -5.6679109556083573e+23 
+4.5000000000000000e+00 -1.3957544508901867e-04 -2.4677486891183917e+03 +7.6086226806046961e+03 -2.1323686751431647e+08 +5.2183675640922100e+12 -5.6150831257183757e+23 
+4.6000000000000005e+00 -1.3964828290397431e-04 -2.4677241389247033e+03 +6.3499641170217483e+03 -1.9166851402245775e+08 +5.0986904494488271e+12 -5.5460973212040715e+23 
+4.7000000000000002e+00 -1.3972529505936965e-04 -2.4676972944174850e+03 +4.9329200384528740e+03 -1.6699883091569188e+08 +4.9601713492854277e+12 -5.4634288169875903e+23 
+4.8000000000000007e+00 -1.3980341888406904e-04 -2.4676690117267990e+03 +3.3984522084336859e+03 -1.3991250261678413e+08 +4.8066421172898789e+12 -5.3695529114731337e+23 
+4.9000000000000004e+00 -1.3987959178585467e-04 -2.4676401469601615e+03 +1.7875213403432610e+03 -1.1109419728328422e+08 +4.6419345237795537e+12 -5.2669448569603807e+23 
+5.0000000000000000e+00 -1.3995075110745516e-04 -2.4676115562428445e+03 +1.4108895090636466e+02 -8.1228595251822010e+07 +4.4698804004764316e+12 -5.1580799386235343e+23 
+5.1000000000000005e+00 -1.4001443271008046e-04 -2.4675839912320048e+03 -1.5022780389625068e+03 -5.0983179019703180e+07 +4.2942792385363296e+12 -5.0454295071078458e+23 
+5.2000000000000002e+00 -1.4007056624090131e-04 -2.4675577857874127e+03 -3.1135878067186818e+03 -2.0956688235394944e+07 +4.1188014062897695e+12 -4.9314492976262119e+23 
+5.3000000000000007e+00 -1.4011967990098869e-04 -2.4675331692872705e+03 -4.6662438442197927e+03 +8.2693473777187932e+06 +3.9470848660569399e+12 -4.8185910712452321e+23 
+5.4000000000000004e+00 -1.4016230177473722e-04 -2.4675103711473712e+03 -6.1336477729108010e+03 +3.6113367897542045e+07 +3.7827677393928643e+12 -4.7093066813764885e+23 
+5.5000000000000000e+00 -1.4019896005128163e-04 -2.4674896207489533e+03 -7.4892029535251759e+03 +6.1993841681507379e+07 +3.6294879980197715e+12 -4.6060478938128661e+23 
+5.6000000000000005e+00 -1.4023018281432331e-04 -2.4674711475072922e+03 -8.7063110503970947e+03 +8.5329209664577216e+07 +3.4908837584004375e+12 -4.5112665584731492e+23 
+5.7000000000000002e+00 -1.4025649829606278e-04 -2.4674551807917023e+03 -9.7583759706457822e+03 +1.0553794856949492e+08 +3.3705929497521860e+12 -4.4274144180379456e+23 
+5.8000000000000007e+00 -1.4027843458501072e-04 -2.4674419500153367e+03 -1.0618799503672912e+04 +1.2203850156534013e+08 +3.2722536759498403e+12 -4.3569433143009494e+23 
+5.9000000000000004e+00 -1.4029651982613110e-04 -2.4674316845740973e+03 -1.1260984264295577e+04 +1.3424932477978203e+08 +3.1995039739200054e+12 -4.3023050516215736e+23 
+6.0000000000000000e+00 -1.4031128220756220e-04 -2.4674246138506337e+03 -1.1658333521408054e+04 +1.4158888490494496e+08 +3.1559818247458115e+12 -4.2659514017155193e+23 
+6.1000000000000005e+00 -1.4032309737093562e-04 -2.4674208839919784e+03 -1.1793599064032771e+04 +1.4367784528489333e+08 +3.1440766031312754e+12 -4.2495740290825738e+23 
+6.2000000000000002e+00 -1.4033173131145751e-04 -2.4674203080301368e+03 -1.1686935357897619e+04 +1.4094579503650108e+08 +3.1611825223245532e+12 -4.2518237394518805e+23 
+6.3000000000000007e+00 -1.4033679746528458e-04 -2.4674226157680650e+03 -1.1367845003481931e+04 +1.3402451316363844e+08 +3.2034452267260679e+12 -4.2705912548506827e+23 
+6.4000000000000004e+00 -1.4033790931755336e-04 -2.4674275369907259e+03 -1.0865831549614513e+04 +1.2354579448305041e+08 +3.2670102756128828e+12 -4.3037672462764617e+23 
+6.5000000000000000e+00 -1.4033468039380170e-04 -2.4674348014723118e+03 -1.0210399029463491e+04 +1.1014144115961210e+08 +3.3480231911007129e+12 -4.3492423646050426e+23 
+6.6000000000000005e+00 -1.4032672421402165e-04 -2.4674441389885214e+03 -9.4310514089759781e+03 +9.4443254343694642e+07 +3.4426295004189316e+12 -4.4049072634707350e+23 
+6.7000000000000002e+00 -1.4031365413514881e-04 -2.4674552793636522e+03 -8.5572903310669026e+03 +7.7082998604867086e+07 +3.5469749204270791e+12 -4.4686527033596682e+23 
+6.8000000000000007e+00 -1.4029508375977583e-04 -2.4674679523486957e+03 -7.6186209412009830e+03 +5.8692493631679147e+07 +3.6572048824376533e+12 -4.5383692840993323e+23 
+6.9000000000000004e+00 -1.4027062656760193e-04 -2.4674818877319262e+03 -6.6445465863410209e+03 +3.9903530636677235e+07 +3.7694649659110928e+12 -4.6119476894894049e+23 
+7.0000000000000000e+00 -1.4023989598130947e-04 -2.4674968153170666e+03 -5.6645699209793020e+03 +2.1347890418306921e+07 +3.8799008024516846e+12 -4.6872786308127154e+23 
+7.1000000000000005e+00 -1.4020299996834375e-04 -2.4675123905403293e+03 -4.7082336017297202e+03 +3.6294821045196811e+06 +3.9848712908635439e+12 -4.7622254324023653e+23 
+7.2000000000000002e+00 -1.4016202402375512e-04 -2.4675279715541128e+03 -3.8052316379123022e+03 -1.2759405463272715e+07 +4.0815890810106025e+12 -4.8345422443623089e+23 
+7.3000000000000007e+00 -1.4011954806662953e-04 -2.4675428421766833e+03 -2.9852965202443829e+03 -2.7354378260674112e+07 +4.1674802069172544e+12 -4.9019558926007054e+23 
+7.4000000000000004e+00 -1.4007815201724444e-04 -2.4675562862285155e+03 -2.2781605662546358e+03 -3.9691045693708941e+07 +4.2399707230083052e+12 -4.9621932171977254e+23 
+7.5000000000000000e+00 -1.4004041584277736e-04 -2.4675675875139091e+03 -1.7135569195508608e+03 -4.9305003631791346e+07 +4.2964866116208457e+12 -5.0129810157137916e+23 
+7.6000000000000005e+00 -1.4000891944494065e-04 -2.4675760298573664e+03 -1.3212177526347266e+03 -5.5731863227664672e+07 +4.3344539341374102e+12 -5.0520461299012083e+23 
+7.7000000000000002e+00 -1.3998624278060030e-04 -2.4675808970661701e+03 -1.1308760710689494e+03 -5.8507222480569325e+07 +4.3512986837862676e+12 -5.0771153633184828e+23 
+7.8000000000000007e+00 -1.3997496576834405e-04 -2.4675814729612403e+03 -1.1722641691994813e+03 -5.7166691189156614e+07 +4.3444469171353267e+12 -5.0859155573586393e+23 
+7.9000000000000004e+00 -1.3997766832290359e-04 -2.4675770413614646e+03 -1.4751145292198412e+03 -5.1245875229233205e+07 +4.3113246668093218e+12 -5.0761735362488418e+23 
+8.0000000000000000e+00 -1.3999693038832054e-04 -2.4675668860795377e+03 -2.0691598576797069e+03 -4.0280377711071886e+07 +4.2493579539756348e+12 -5.0456161206978531e+23 
+8.0999999999999996e+00 -1.4003420390449654e-04 -2.4675506564558873e+03 -2.9663243614822518e+03 -2.4106587411798462e+07 +4.1576700751127295e+12 -4.9932104363170749e+23 
+8.2000000000000011e+00 -1.4008642895083282e-04 -2.4675294638963292e+03 -4.1073003993800639e+03 -3.7640022492149579e+06 +4.0421732555521328e+12 -4.9228847328052460e+23 
+8.3000000000000007e+00 -1.4014941757354077e-04 -2.4675047853468286e+03 -5.4149711377465637e+03 +1.9407082260815810e+07 +3.9104770615309004e+12 -4.8398076054483573e+23 
+8.4000000000000004e+00 -1.4021898176259489e-04 -2.4674780977679648e+03 -6.8122191022029529e+03 +4.4066361114176534e+07 +3.7701911062556924e+12 -4.7491476737785213e+23 
+8.5000000000000000e+00 -1.4029093364947165e-04 -2.4674508780780507e+03 -8.2219288386216977e+03 +6.8873561096253857e+07 +3.6289248382829019e+12 -4.6560734647596447e+23 
+8.5999999999999996e+00 -1.4036108525525349e-04 -2.4674246032289921e+03 -9.5669832743765437e+03 +9.2488383410182759e+07 +3.4942878390491265e+12 -4.5657535804038557e+23 
+8.7000000000000011e+00 -1.4042524861917631e-04 -2.4674007501674064e+03 -1.0770265577546677e+04 +1.1357053287123877e+08 +3.3738896720412734e+12 -4.4833566135007392e+23 
+8.8000000000000007e+00 -1.4047923585976219e-04 -2.4673807958161924e+03 -1.1754660055152397e+04 +1.3077973231662786e+08 +3.2753398069243350e+12 -4.4140511034986723e+23 
+8.9000000000000004e+00 -1.4051885897597576e-04 -2.4673662171323508e+03 -1.2443049431730102e+04 +1.4277568016708851e+08 +3.2062478380750698e+12 -4.3630056582514684e+23 
+9.0000000000000000e+00 -1.4053993005163512e-04 -2.4673584910500786e+03 -1.2758317448589152e+04 +1.4821809007154411e+08 +3.1742232838537227e+12 -4.3353888457428910e+23 
+9.0999999999999996e+00 -1.4053955984535214e-04 -2.4673586274175059e+03 -1.2648046418686206e+04 +1.4619686335717702e+08 +3.1844358516237886e+12 -4.3347355425933150e+23 
+9.2000000000000011e+00 -1.4052005393193649e-04 -2.4673657677063356e+03 -1.2158614409911368e+04 +1.3752267442647323e+08 +3.2322958917580459e+12 -4.3580457993375621e+23 
+9.3000000000000007e+00 -1.4048501663761320e-04 -2.4673785862818777e+03 -1.1361098952301556e+04 +1.2343639848005071e+08 +3.3107738790814316e+12 -4.4006859423875283e+23 
+9.4000000000000004e+00 -1.4043805223399510e-04 -2.4673957575250365e+03 -1.0326576859068920e+04 +1.0517889976268961e+08 +3.4128403439170762e+12 -4.4580223280488950e+23 
+9.5000000000000000e+00 -1.4038276499297669e-04 -2.4674159558165206e+03 -9.1261249524554078e+03 +8.3991042643536299e+07 +3.5314658160401919e+12 -4.5254213124529857e+23 
+9.6000000000000014e+00 -1.4032275925237266e-04 -2.4674378555172498e+03 -7.8308210071526692e+03 +6.1113706576736756e+07 +3.6596207466553892e+12 -4.5982492070162411e+23 
+9.7000000000000011e+00 -1.4026163929900323e-04 -2.4674601310040048e+03 -6.5117420199960361e+03 +3.7787758559123747e+07 +3.7902756523363164e+12 -4.6718723608302610e+23 
+9.8000000000000007e+00 -1.4020300942755223e-04 -2.4674814566512919e+03 -5.2399650926243921e+03 +1.5254067178143701e+07 +3.9164010416564482e+12 -4.7416571187275267e+23 
+9.9000000000000004e+00 -1.4015047392611799e-04 -2.4675005068334808e+03 -4.0865673915603115e+03 -5.2464973468708945e+06 +4.0309674124853887e+12 -4.8029698172771140e+23 
+1.0000000000000000e+01 -1.4010763708503015e-04 -2.4675159559279687e+03 -3.1226258385038936e+03 -2.2473069675949097e+07 +4.1269452917185757e+12 -4.8511768130989810e+23 
+1.0100000000000001e+01 -1.4007715694815497e-04 -2.4675268301071906e+03 -2.4004790842557718e+03 -3.5510486689807303e+07 +4.1991613433868872e+12 -4.8829555005655177e+23 
+1.0200000000000001e+01 -1.4005790652344270e-04 -2.4675335627540571e+03 -1.8975108233779226e+03 -4.4746427944669940e+07 +4.2498669707943203e+12 -4.9002275477046349e+23 
+1.0300000000000001e+01 -1.4004781249822809e-04 -2.4675369390708770e+03 -1.5723652564253093e+03 -5.0894295080036901e+07 +4.2831698195699282e+12 -4.9062257218349975e+23 
+1.0400000000000000e+01 -1.4004480170529064e-04 -2.4675377442159574e+03 -1.3836886944663838e+03 -5.4667456465494215e+07 +4.3031773628209263e+12 -4.9041826930789298e+23 
+1.0500000000000000e+01 -1.4004680079561483e-04 -2.4675367634049635e+03 -1.2901246353792646e+03 -5.6779325435576729e+07 +4.3139973090173691e+12 -4.8973312662464195e+23 
+1.0600000000000001e+01 -1.4005173653855113e-04 -2.4675347818140390e+03 -1.2503185720806416e+03 -5.7943282866468102e+07 +4.3197371946691729e+12 -4.8889041457068983e+23 
+1.0700000000000001e+01 -1.4005753571571128e-04 -2.4675325846188839e+03 -1.2229159308475644e+03 -5.8872711588409193e+07 +4.3245045697286094e+12 -4.8821340467001583e+23 
+1.0800000000000001e+01 -1.4006212499246396e-04 -2.4675309570285222e+03 -1.1665605843062121e+03 -6.0281018467348948e+07 +4.3324071071015020e+12 -4.8802537520241214e+23 
+1.0900000000000000e+01 -1.4006343113499685e-04 -2.4675306842216619e+03 -1.0398978614305427e+03 -6.2881587386488110e+07 +4.3475523604577344e+12 -4.8864959773088330e+23 
+1.1000000000000000e+01 -1.4005938091138235e-04 -2.4675325513778666e+03 -8.0157301413079392e+02 -6.7387803780323267e+07 +4.3740478926350752e+12 -4.9040934443234638e+23 
+1.1100000000000001e+01 -1.4004852556544854e-04 -2.4675370860429339e+03 -4.2442079318742429e+02 -7.4262495286402583e+07 +4.4145336002872266e+12 -4.9350760145174722e+23 
+1.1200000000000001e+01 -1.4003191450885329e-04 -2.4675437851634015e+03 +6.1963334484187918e+01 -8.2966218801812649e+07 +4.4657785215833281e+12 -4.9766620091989351e+23 
+1.1300000000000001e+01 -1.4001122177473630e-04 -2.4675518880073801e+03 +6.1379223708253244e+02 -9.2708938972406536e+07 +4.5230838485366982e+12 -5.0248667864435839e+23 
+1.1400000000000000e+01 -1.3998812128031922e-04 -2.4675606338803891e+03 +1.1872806389565742e+03 -1.0270065036013231e+08 +4.5817509307630107e+12 -5.0757057956766575e+23 
+1.1500000000000000e+01 -1.3996428705906677e-04 -2.4675692620511513e+03 +1.7386414565077507e+03 -1.1215131857198463e+08 +4.6370809660238467e+12 -5.1251943990098408e+23 
+1.1600000000000001e+01 -1.3994139295749289e-04 -2.4675770118468186e+03 +2.2240904606174031e+03 -1.2027095474371663e+08 +4.6843753900924971e+12 -5.1693480945244614e+23 
