# multipoles
# s[mm] polynom_b[n=0][T/m^n] polynom_b[n=2][T/m^n] polynom_b[n=4][T/m^n] polynom_b[n=6][T/m^n] polynom_b[n=8][T/m^n] polynom_b[n=14][T/m^n] 
+0.0000000000000000e+00 -1.7198277163954803e-02 -2.4712083503047193e+03 -3.2690455854596844e+05 -3.1066570369752938e+08 +4.7145733060390801e+12 -3.7737616085458930e+23 
+1.0000000000000001e-01 -1.7198273839012443e-02 -2.4712099250034921e+03 -3.2682715501993854e+05 -3.1198127536198199e+08 +4.7220929833575938e+12 -3.7792086727663929e+23 
+2.0000000000000001e-01 -1.7198264878796849e-02 -2.4712141550370857e+03 -3.2661849763429788e+05 -3.1553901743550444e+08 +4.7424830051029658e+12 -3.7940457241092576e+23 
+3.0000000000000004e-01 -1.7198251805340497e-02 -2.4712202992782622e+03 -3.2631391771328892e+05 -3.2075544691200298e+08 +4.7724897355997559e+12 -3.8160164849585692e+23 
+4.0000000000000002e-01 -1.7198236140525878e-02 -2.4712276166457509e+03 -3.2594874435932050e+05 -3.2704711598758757e+08 +4.8088597223701064e+12 -3.8428647815711963e+23 
+5.0000000000000000e-01 -1.7198219406380926e-02 -2.4712353660136887e+03 -3.2555830883559166e+05 -3.3383054255038911e+08 +4.8483393340873135e+12 -3.8723343384484990e+23 
+6.0000000000000009e-01 -1.7198203124883019e-02 -2.4712428062707208e+03 -3.2517794172496547e+05 -3.4052225508859628e+08 +4.8876749940277373e+12 -3.9021689106118941e+23 
+7.0000000000000007e-01 -1.7198188817969837e-02 -2.4712491963200459e+03 -3.2484297284484352e+05 -3.4653879481501573e+08 +4.9236131937574834e+12 -3.9301122937161663e+23 
+8.0000000000000004e-01 -1.7198178007612416e-02 -2.4712537950521087e+03 -3.2458873270049575e+05 -3.5129669132421702e+08 +4.9529003617939219e+12 -3.9539082451546389e+23 
+9.0000000000000002e-01 -1.7198172215836142e-02 -2.4712558613419274e+03 -3.2445055250444287e+05 -3.5421246341478384e+08 +4.9722828720066016e+12 -3.9713004929183362e+23 
+1.0000000000000000e+00 -1.7198172964530602e-02 -2.4712546541054703e+03 -3.2446376150946657e+05 -3.5470266071881115e+08 +4.9785072578814160e+12 -3.9800328545671380e+23 
+1.1000000000000001e+00 -1.7198181182677418e-02 -2.4712497101198751e+03 -3.2465034148094826e+05 -3.5240460057283181e+08 +4.9695474565127246e+12 -3.9786887182710781e+23 
+1.2000000000000002e+00 -1.7198195427274895e-02 -2.4712416777133035e+03 -3.2497887912753184e+05 -3.4783875165056908e+08 +4.9482874367566133e+12 -3.9692099891327022e+23 
+1.3000000000000000e+00 -1.7198213662209371e-02 -2.4712314831356248e+03 -3.2540461079983710e+05 -3.4174639523527652e+08 +4.9188388026458330e+12 -3.9543782720136371e+23 
+1.4000000000000001e+00 -1.7198233851560569e-02 -2.4712200525778894e+03 -3.2588277567847958e+05 -3.3486876790739262e+08 +4.8853129260789160e+12 -3.9369750406976514e+23 
+1.5000000000000000e+00 -1.7198253959170413e-02 -2.4712083123060993e+03 -3.2636860926478507e+05 -3.2794716510850632e+08 +4.8518214872766787e+12 -3.9197819456328159e+23 
+1.6000000000000001e+00 -1.7198271949023944e-02 -2.4711971885381040e+03 -3.2681734949841816e+05 -3.2172284255579036e+08 +4.8224759558897588e+12 -3.9055805142847857e+23 
+1.7000000000000002e+00 -1.7198285785099274e-02 -2.4711876074984484e+03 -3.2718423387728666e+05 -3.1693706412755293e+08 +4.8013878481341377e+12 -3.8971523043797822e+23 
+1.8000000000000000e+00 -1.7198293431327727e-02 -2.4711804954226436e+03 -3.2742449946487532e+05 -3.1433109961102319e+08 +4.7926687074753350e+12 -3.8972788857184901e+23 
+1.9000000000000001e+00 -1.7198292851688321e-02 -2.4711767785335774e+03 -3.2749338387113780e+05 -3.1464621080993140e+08 +4.8004300383053311e+12 -3.9087418083724692e+23 
+2.0000000000000000e+00 -1.7198282010164351e-02 -2.4711773830521192e+03 -3.2734612482925801e+05 -3.1862365729621726e+08 +4.8287833323732930e+12 -3.9343226142543821e+23 
+2.1000000000000001e+00 -1.7198259571195165e-02 -2.4711829308004940e+03 -3.2695314761253510e+05 -3.2674707593334383e+08 +4.8803888841654668e+12 -3.9758068604130597e+23 
+2.2000000000000002e+00 -1.7198227001548282e-02 -2.4711928258497774e+03 -3.2634563527032791e+05 -3.3846949171695673e+08 +4.9521015682557119e+12 -4.0309958063564833e+23 
+2.3000000000000003e+00 -1.7198186468502137e-02 -2.4712061678574205e+03 -3.2556995907612034e+05 -3.5298629645491302e+08 +5.0393250086101201e+12 -4.0966946975546083e+23 
+2.4000000000000004e+00 -1.7198140139317097e-02 -2.4712220564852150e+03 -3.2467249011615169e+05 -3.6949288474644583e+08 +5.1374628432142275e+12 -4.1697087870757912e+23 
+2.5000000000000000e+00 -1.7198090181305754e-02 -2.4712395913778728e+03 -3.2369960034262011e+05 -3.8718463700036943e+08 +5.2419186343634375e+12 -4.2468432831027779e+23 
+2.6000000000000001e+00 -1.7198038761724339e-02 -2.4712578722000776e+03 -3.2269766066312429e+05 -4.0525695102736557e+08 +5.3480960381229590e+12 -4.3249034503067857e+23 
+2.7000000000000002e+00 -1.7197988047850152e-02 -2.4712759986081232e+03 -3.2171304243904998e+05 -4.2290521695781958e+08 +5.4513986687787744e+12 -4.4006945278095888e+23 
+2.8000000000000003e+00 -1.7197940206948419e-02 -2.4712930702616959e+03 -3.2079211688656098e+05 -4.3932482699091452e+08 +5.5472301504668789e+12 -4.4710217593565777e+23 
+2.9000000000000004e+00 -1.7197897406327184e-02 -2.4713081868093063e+03 -3.1998125569600600e+05 -4.5371116654997951e+08 +5.6309940748865176e+12 -4.5326903732610543e+23 
+3.0000000000000000e+00 -1.7197861813264787e-02 -2.4713204479069645e+03 -3.1932683025583986e+05 -4.6525962513956487e+08 +5.6980940522210332e+12 -4.5825056053516393e+23 
+3.1000000000000001e+00 -1.7197834970892993e-02 -2.4713292074196711e+03 -3.1886182320302277e+05 -4.7340031830365628e+08 +5.7452756984297100e+12 -4.6181822005132536e+23 
+3.2000000000000002e+00 -1.7197815925788704e-02 -2.4713348360409041e+03 -3.1856566256800113e+05 -4.7850225857664752e+08 +5.7746526111418125e+12 -4.6410729110187155e+23 
+3.3000000000000003e+00 -1.7197803100350215e-02 -2.4713379586834235e+03 -3.1840438713781832e+05 -4.8116919219517303e+08 +5.7896804329991924e+12 -4.6534400196249466e+23 
+3.4000000000000004e+00 -1.7197794917092241e-02 -2.4713392002232699e+03 -3.1834403750133864e+05 -4.8200483657071215e+08 +5.7938146556091396e+12 -4.6575457224215360e+23 
+3.5000000000000000e+00 -1.7197789798412758e-02 -2.4713391855727536e+03 -3.1835065247299284e+05 -4.8161293748303795e+08 +5.7905109192181152e+12 -4.6556523008475469e+23 
+3.6000000000000001e+00 -1.7197786166734515e-02 -2.4713385396370909e+03 -3.1839027120604046e+05 -4.8059723533544290e+08 +5.7832248359449072e+12 -4.6500220201188612e+23 
+3.7000000000000002e+00 -1.7197782444529509e-02 -2.4713378873054603e+03 -3.1842893365285505e+05 -4.7956145765214747e+08 +5.7754119501780781e+12 -4.6429171064700053e+23 
+3.8000000000000003e+00 -1.7197777054236245e-02 -2.4713378534780918e+03 -3.1843267921346228e+05 -4.7910934085915774e+08 +5.7705278530719922e+12 -4.6365998129463586e+23 
+3.9000000000000004e+00 -1.7197768418215652e-02 -2.4713390630786166e+03 -3.1836754615433712e+05 -4.7984463943446159e+08 +5.7720282302148242e+12 -4.6333324467799036e+23 
+4.0000000000000000e+00 -1.7197754959015783e-02 -2.4713421409726716e+03 -3.1819957557585149e+05 -4.8237106258472061e+08 +5.7833685301395322e+12 -4.6353771792735672e+23 
+4.1000000000000005e+00 -1.7197735730543118e-02 -2.4713474615835180e+03 -3.1790869719045662e+05 -4.8704395213403761e+08 +5.8065824483569600e+12 -4.6440746472085802e+23 
+4.2000000000000002e+00 -1.7197712312946756e-02 -2.4713543973087994e+03 -3.1753040779658797e+05 -4.9322497737074435e+08 +5.8380156015329297e+12 -4.6570787342104956e+23 
+4.2999999999999998e+00 -1.7197686917890639e-02 -2.4713620700546981e+03 -3.1711409520549944e+05 -5.0002740188498491e+08 +5.8725916529388164e+12 -4.6711216748895990e+23 
+4.4000000000000004e+00 -1.7197661756970829e-02 -2.4713696017477291e+03 -3.1670914626204339e+05 -5.0656450440969372e+08 +5.9052343440432285e+12 -4.6829357476015205e+23 
+4.5000000000000000e+00 -1.7197639041920110e-02 -2.4713761142736826e+03 -3.1636494975152746e+05 -5.1194953319311327e+08 +5.9308672585479062e+12 -4.6892531420477994e+23 
+4.6000000000000005e+00 -1.7197620984329740e-02 -2.4713807295604424e+03 -3.1613089245723939e+05 -5.1529576787013060e+08 +5.9444141422704365e+12 -4.6868061386103569e+23 
+4.7000000000000002e+00 -1.7197609795871167e-02 -2.4713825695117530e+03 -3.1605636230893462e+05 -5.1571647018291020e+08 +5.9407986490706348e+12 -4.6723269668829441e+23 
+4.8000000000000007e+00 -1.7197607688201270e-02 -2.4713807560357836e+03 -3.1619074703844503e+05 -5.1232490474703151e+08 +5.9149444465566025e+12 -4.6425478627698652e+23 
+4.9000000000000004e+00 -1.7197616872996806e-02 -2.4713744110352213e+03 -3.1658343462197954e+05 -5.0423433256730407e+08 +5.8617751846409707e+12 -4.5942010534117666e+23 
+5.0000000000000000e+00 -1.7197639561888158e-02 -2.4713626564263704e+03 -3.1728381238305004e+05 -4.9055802495794588e+08 +5.7762145667969033e+12 -4.5240187962270718e+23 
+5.1000000000000005e+00 -1.7197677056775159e-02 -2.4713449787138570e+03 -3.1832038505736005e+05 -4.7079004230621743e+08 +5.6554047207011387e+12 -4.4302495374541883e+23 
+5.2000000000000002e+00 -1.7197727020392357e-02 -2.4713223228339239e+03 -3.1963812310655572e+05 -4.4594766499058110e+08 +5.5053618082670107e+12 -4.3172066760771690e+23 
+5.3000000000000007e+00 -1.7197786205855718e-02 -2.4712959982767929e+03 -3.2116111605410540e+05 -4.1742893645158076e+08 +5.3343202807241221e+12 -4.1907197238934801e+23 
+5.4000000000000004e+00 -1.7197851366140042e-02 -2.4712673145762642e+03 -3.2281345130588335e+05 -3.8663193382948971e+08 +5.1505147653187354e+12 -4.0566182932638491e+23 
+5.5000000000000000e+00 -1.7197919254199334e-02 -2.4712375812722098e+03 -3.2451921598107094e+05 -3.5495473872856915e+08 +4.9621799122012402e+12 -3.9207320091320602e+23 
+5.6000000000000005e+00 -1.7197986623159890e-02 -2.4712081078515689e+03 -3.2620249976437859e+05 -3.2379539203067362e+08 +4.7775501593359082e+12 -3.7888903759165431e+23 
+5.7000000000000002e+00 -1.7198050226006241e-02 -2.4711802038458395e+03 -3.2778739016955125e+05 -2.9455196911359948e+08 +4.6048601243830518e+12 -3.6669229998650227e+23 
+5.8000000000000007e+00 -1.7198106815733877e-02 -2.4711551787817370e+03 -3.2919797495371586e+05 -2.6862254151952893e+08 +4.4523444054657246e+12 -3.5606594769737530e+23 
+5.9000000000000004e+00 -1.7198153145361297e-02 -2.4711343421792981e+03 -3.3035834220311337e+05 -2.4740517541362190e+08 +4.3282375718898828e+12 -3.4759293857861817e+23 
+6.0000000000000000e+00 -1.7198185967921359e-02 -2.4711190035544655e+03 -3.3119258019008220e+05 -2.3229793415821472e+08 +4.2407741789704448e+12 -3.4185622975826327e+23 
+6.1000000000000005e+00 -1.7198203047993587e-02 -2.4711100673592482e+03 -3.3164845777877298e+05 -2.2425872691786852e+08 +4.1955690274047451e+12 -3.3924578257065487e+23 
+6.2000000000000002e+00 -1.7198206196372121e-02 -2.4711068177837105e+03 -3.3176846642606158e+05 -2.2248484331270707e+08 +4.1877578882023481e+12 -3.3937957486181633e+23 
+6.3000000000000007e+00 -1.7198198235466734e-02 -2.4711081339330294e+03 -3.3161877918588230e+05 -2.2573340291504803e+08 +4.2098566955338770e+12 -3.4168258404467671e+23 
+6.4000000000000004e+00 -1.7198181987557525e-02 -2.4711128949506660e+03 -3.3126556729795114e+05 -2.3276155370440403e+08 +4.2543815302754941e+12 -3.4557979575157114e+23 
+6.5000000000000000e+00 -1.7198160275053102e-02 -2.4711199799422952e+03 -3.3077500379373599e+05 -2.4232641556208950e+08 +4.3138483279568335e+12 -3.5049618743832226e+23 
+6.6000000000000005e+00 -1.7198135920299160e-02 -2.4711282680321319e+03 -3.3021326082046313e+05 -2.5318512231749129e+08 +4.3807730966398110e+12 -3.5585674069051692e+23 
+6.7000000000000002e+00 -1.7198111745679368e-02 -2.4711366383333966e+03 -3.2964651104012021e+05 -2.6409479979730994e+08 +4.4476718032281377e+12 -3.6108643479708963e+23 
+6.8000000000000007e+00 -1.7198090573528290e-02 -2.4711439699728603e+03 -3.2914092650338291e+05 -2.7381258305586320e+08 +4.5070604609709307e+12 -3.6561025151021371e+23 
+6.9000000000000004e+00 -1.7198075226252125e-02 -2.4711491420587486e+03 -3.2876268006838748e+05 -2.8109559526260954e+08 +4.5514550245851191e+12 -3.6885316959378149e+23 
+7.0000000000000000e+00 -1.7198068526159439e-02 -2.4711510337240502e+03 -3.2857794352590671e+05 -2.8470097519223225e+08 +4.5733715252480293e+12 -3.7024017167313953e+23 
+7.1000000000000005e+00 -1.7198072336786441e-02 -2.4711488892804746e+03 -3.2863134358615434e+05 -2.8379230720353466e+08 +4.5677913232468037e+12 -3.6939428903401472e+23 
+7.2000000000000002e+00 -1.7198084686443477e-02 -2.4711434137753035e+03 -3.2888132616356475e+05 -2.7915896024456811e+08 +4.5395570881418994e+12 -3.6673074534703152e+23 
+7.3000000000000007e+00 -1.7198102644464888e-02 -2.4711356774940455e+03 -3.2926478929581010e+05 -2.7199679229630017e+08 +4.4959770414684258e+12 -3.6286282523438051e+23 
+7.4000000000000004e+00 -1.7198123280299415e-02 -2.4711267506843637e+03 -3.2971863291276171e+05 -2.6350163076682818e+08 +4.4443592436219189e+12 -3.5840380399741675e+23 
+7.5000000000000000e+00 -1.7198143663360223e-02 -2.4711177036074705e+03 -3.3017975622714224e+05 -2.5486931504248145e+08 +4.3920118195435381e+12 -3.5396696081237014e+23 
+7.6000000000000005e+00 -1.7198160863097188e-02 -2.4711096065131851e+03 -3.3058505900066072e+05 -2.4729567583547616e+08 +4.3462428491180234e+12 -3.5016557230868383e+23 
+7.7000000000000002e+00 -1.7198171948884521e-02 -2.4711035296726177e+03 -3.3087144001997076e+05 -2.4197655874559209e+08 +4.3143604876496523e+12 -3.4761291918529196e+23 
+7.8000000000000007e+00 -1.7198173990142437e-02 -2.4711005433445484e+03 -3.3097579861822625e+05 -2.4010780123545128e+08 +4.3036728500376260e+12 -3.4692228004909491e+23 
+7.9000000000000004e+00 -1.7198164056279403e-02 -2.4711017177899867e+03 -3.3083503406210593e+05 -2.4288524136366117e+08 +4.3214880525254536e+12 -3.4870693339778674e+23 
+8.0000000000000000e+00 -1.7198139216735304e-02 -2.4711081232620932e+03 -3.3038604594481940e+05 -2.5150471259390736e+08 +4.3751141896465562e+12 -3.5358015672722275e+23 
+8.0999999999999996e+00 -1.7198097748408536e-02 -2.4711203839772884e+03 -3.2959207988891657e+05 -2.6666340774014965e+08 +4.4688184115607676e+12 -3.6190001226038889e+23 
+8.2000000000000011e+00 -1.7198042757985501e-02 -2.4711373400219863e+03 -3.2852176474638149e+05 -2.8706397175841534e+08 +4.5947041700094424e+12 -3.7300370583179108e+23 
+8.3000000000000007e+00 -1.7197978559602003e-02 -2.4711573854518660e+03 -3.2727007501322759e+05 -3.1091041607785982e+08 +4.7418340132430039e+12 -3.8597323071034873e+23 
+8.4000000000000004e+00 -1.7197909467542558e-02 -2.4711789142758817e+03 -3.2593198748355737e+05 -3.3640671527306670e+08 +4.8992702960092559e+12 -3.9989056901500597e+23 
+8.5000000000000000e+00 -1.7197839795967382e-02 -2.4712003205408573e+03 -3.2460247712368320e+05 -3.6175687286110336e+08 +5.0560755236397803e+12 -4.1383771140124481e+23 
+8.5999999999999996e+00 -1.7197773859050903e-02 -2.4712199982903953e+03 -3.2337651902037254e+05 -3.8516489083852750e+08 +5.2013121950267578e+12 -4.2689664831223898e+23 
+8.7000000000000011e+00 -1.7197715970968218e-02 -2.4712363415662571e+03 -3.2234908840452676e+05 -4.0483476829329455e+08 +5.3240427915067129e+12 -4.3814936894014035e+23 
+8.8000000000000007e+00 -1.7197670445871442e-02 -2.4712477444180113e+03 -3.2161516009330557e+05 -4.1897051133390760e+08 +5.4133298328738916e+12 -4.4667786487353454e+23 
+8.9000000000000004e+00 -1.7197641598013010e-02 -2.4712526008662467e+03 -3.2126971027661109e+05 -4.2577610449685794e+08 +5.4582357270479785e+12 -4.5156412136863721e+23 
+9.0000000000000000e+00 -1.7197633741566631e-02 -2.4712493049523182e+03 -3.2140771421361162e+05 -4.2345554640329939e+08 +5.4478229530183301e+12 -4.5189012750789398e+23 
+9.0999999999999996e+00 -1.7197649574282260e-02 -2.4712368734269398e+03 -3.2208716298662254e+05 -4.1091017025828409e+08 +5.3753719229898477e+12 -4.4708065888645906e+23 
+9.2000000000000011e+00 -1.7197685328498542e-02 -2.4712168137808399e+03 -3.2321811593291105e+05 -3.8983056648618853e+08 +5.2510343509314639e+12 -4.3793161182011707e+23 
+9.3000000000000007e+00 -1.7197735620127115e-02 -2.4711912562128841e+03 -3.2467364832813671e+05 -3.6260465769845194e+08 +5.0891798694538730e+12 -4.2558166809727619e+23 
+9.4000000000000004e+00 -1.7197795065051005e-02 -2.4711623309303527e+03 -3.2632683503504505e+05 -3.3162037320355147e+08 +4.9041781468133730e+12 -4.1116951163251587e+23 
+9.5000000000000000e+00 -1.7197858279208122e-02 -2.4711321681248951e+03 -3.2805075165776076e+05 -2.9926563060428119e+08 +4.7103987902407236e+12 -3.9583382284053063e+23 
+9.6000000000000014e+00 -1.7197919878487598e-02 -2.4711028980018150e+03 -3.2971847316847020e+05 -2.6792835727495590e+08 +4.5222114570543350e+12 -3.8071328491295202e+23 
+9.7000000000000011e+00 -1.7197974478804147e-02 -2.4710766507578860e+03 -3.3120307496605552e+05 -2.3999647370044148e+08 +4.3539857682923901e+12 -3.6694657894686486e+23 
+9.8000000000000007e+00 -1.7198016696064772e-02 -2.4710555565947880e+03 -3.3237763214792049e+05 -2.1785790577008912e+08 +4.2200913753348320e+12 -3.5567238797143070e+23 
+9.9000000000000004e+00 -1.7198041146202016e-02 -2.4710417457047856e+03 -3.3311522031031788e+05 -2.0390057103682411e+08 +4.1348978846485723e+12 -3.4802939232450847e+23 
+1.0000000000000000e+01 -1.7198042445069672e-02 -2.4710373483034818e+03 -3.3328891394166491e+05 -2.0051240436764422e+08 +4.1127749918184072e+12 -3.4515627728041296e+23 
+1.0100000000000001e+01 -1.7198016968684792e-02 -2.4710437887834678e+03 -3.3281399939883570e+05 -2.0928855128489807e+08 +4.1633460662161636e+12 -3.4782726454055640e+23 
+1.0200000000000001e+01 -1.7197968133177272e-02 -2.4710596684040015e+03 -3.3177460302836122e+05 -2.2865311633857146e+08 +4.2772497693706006e+12 -3.5535875436510251e+23 
+1.0300000000000001e+01 -1.7197901114798089e-02 -2.4710828826109105e+03 -3.3029706266846921e+05 -2.5623741980840659e+08 +4.4403784596690986e+12 -3.6670268440452016e+23 
+1.0400000000000000e+01 -1.7197821089686458e-02 -2.4711113268873501e+03 -3.2850771427740523e+05 -2.8967281248593068e+08 +4.6386246568058457e+12 -3.8081100168998951e+23 
+1.0500000000000000e+01 -1.7197733234155414e-02 -2.4711428966604349e+03 -3.2653289658850734e+05 -3.2659060056431717e+08 +4.8578806462043145e+12 -3.9663563976888115e+23 
+1.0600000000000001e+01 -1.7197642724313796e-02 -2.4711754874210455e+03 -3.2449894523381273e+05 -3.6462213950735950e+08 +5.0840389700467832e+12 -4.1312854676540677e+23 
+1.0700000000000001e+01 -1.7197554736458225e-02 -2.4712069946030547e+03 -3.2253219856874802e+05 -4.0139874204853779e+08 +5.3029919498783945e+12 -4.2924165848997541e+23 
+1.0800000000000001e+01 -1.7197474446752004e-02 -2.4712353136797824e+03 -3.2075899309784605e+05 -4.3455174957159215e+08 +5.5006320536190078e+12 -4.4392691874991393e+23 
+1.0900000000000000e+01 -1.7197407031434058e-02 -2.4712583401025058e+03 -3.1930566634546756e+05 -4.6171248785424584e+08 +5.6628516702028555e+12 -4.5613626712201604e+23 
+1.1000000000000000e+01 -1.7197357666695876e-02 -2.4712739693364829e+03 -3.1829855518777680e+05 -4.8051229261458927e+08 +5.7755432389944072e+12 -4.6482164590318743e+23 
+1.1100000000000001e+01 -1.7197329849819008e-02 -2.4712807676553375e+03 -3.1782382094927278e+05 -4.8933130518912065e+08 +5.8290166416347812e+12 -4.6924799872419493e+23 
+1.1200000000000001e+01 -1.7197320362187643e-02 -2.4712799846391704e+03 -3.1780691944418848e+05 -4.8954493927556843e+08 +5.8312517793491455e+12 -4.6993228783391257e+23 
+1.1300000000000001e+01 -1.7197324306340377e-02 -2.4712735406582938e+03 -3.1813313177557691e+05 -4.8327740124895155e+08 +5.7946459296850674e+12 -4.6770447322088984e+23 
+1.1400000000000000e+01 -1.7197336784730299e-02 -2.4712633561069360e+03 -3.1868773795430793e+05 -4.7265291412053525e+08 +5.7315964542862207e+12 -4.6339451938778868e+23 
+1.1500000000000000e+01 -1.7197352899820655e-02 -2.4712513513778495e+03 -3.1935601801786898e+05 -4.5979570094842970e+08 +5.6545007167722266e+12 -4.5783239112468196e+23 
+1.1600000000000001e+01 -1.7197367754058626e-02 -2.4712394468688954e+03 -3.2002325175545673e+05 -4.4682998872252357e+08 +5.5757561011949199e+12 -4.5184805437674566e+23 
